'Elapsed time','i','ii','iii','avr','avl','avf','v1','v2','v3','v4','v5','v6','vx','vy','vz'
'hh:mm:ss.mmm','mV','mV','mV','mV','mV','mV','mV','mV','mV','mV','mV','mV','mV','mV','mV'
'0:00.000',-0.079,-0.357,-0.278,0.217,0.100,-0.317,-0.090,-0.057,-0.059,-0.120,-0.210,-0.158,-0.259,-0.278,0.032
'0:00.001',-0.081,-0.358,-0.277,0.219,0.098,-0.318,-0.089,-0.056,-0.064,-0.124,-0.211,-0.160,-0.260,-0.272,0.030
'0:00.002',-0.081,-0.358,-0.277,0.220,0.098,-0.318,-0.090,-0.058,-0.064,-0.123,-0.209,-0.158,-0.260,-0.271,0.029
'0:00.003',-0.079,-0.352,-0.273,0.215,0.098,-0.313,-0.090,-0.059,-0.064,-0.123,-0.207,-0.156,-0.259,-0.270,0.027
'0:00.004',-0.077,-0.350,-0.272,0.213,0.098,-0.310,-0.089,-0.059,-0.064,-0.122,-0.208,-0.157,-0.260,-0.272,0.025
'0:00.005',-0.075,-0.344,-0.270,0.209,0.098,-0.307,-0.089,-0.059,-0.065,-0.120,-0.205,-0.155,-0.261,-0.275,0.024
'0:00.006',-0.077,-0.339,-0.261,0.208,0.092,-0.300,-0.092,-0.061,-0.067,-0.121,-0.207,-0.156,-0.261,-0.272,0.023
'0:00.007',-0.075,-0.341,-0.266,0.207,0.096,-0.303,-0.091,-0.060,-0.066,-0.121,-0.206,-0.157,-0.262,-0.268,0.024
'0:00.008',-0.066,-0.332,-0.266,0.199,0.100,-0.298,-0.088,-0.059,-0.065,-0.121,-0.205,-0.154,-0.262,-0.264,0.024
'0:00.009',-0.059,-0.316,-0.256,0.187,0.099,-0.286,-0.088,-0.059,-0.065,-0.119,-0.203,-0.151,-0.260,-0.257,0.022
'0:00.010',-0.062,-0.320,-0.257,0.191,0.097,-0.288,-0.090,-0.060,-0.067,-0.121,-0.204,-0.152,-0.261,-0.257,0.021
'0:00.011',-0.066,-0.323,-0.257,0.194,0.096,-0.289,-0.092,-0.063,-0.068,-0.121,-0.203,-0.153,-0.261,-0.257,0.020
'0:00.012',-0.065,-0.320,-0.255,0.192,0.096,-0.287,-0.092,-0.064,-0.068,-0.121,-0.202,-0.153,-0.260,-0.254,0.020
'0:00.013',-0.067,-0.331,-0.264,0.199,0.099,-0.297,-0.089,-0.062,-0.066,-0.123,-0.208,-0.153,-0.262,-0.262,0.024
'0:00.014',-0.069,-0.338,-0.269,0.203,0.100,-0.303,-0.089,-0.061,-0.066,-0.123,-0.206,-0.157,-0.263,-0.266,0.026
'0:00.015',-0.076,-0.341,-0.264,0.208,0.094,-0.302,-0.093,-0.066,-0.072,-0.129,-0.212,-0.163,-0.264,-0.264,0.029
'0:00.016',-0.079,-0.348,-0.268,0.213,0.095,-0.308,-0.093,-0.067,-0.073,-0.131,-0.213,-0.163,-0.265,-0.266,0.029
'0:00.017',-0.075,-0.343,-0.268,0.208,0.097,-0.305,-0.093,-0.066,-0.071,-0.127,-0.209,-0.159,-0.262,-0.259,0.028
'0:00.018',-0.071,-0.337,-0.265,0.204,0.097,-0.301,-0.093,-0.064,-0.071,-0.126,-0.209,-0.157,-0.262,-0.256,0.026
'0:00.019',-0.068,-0.341,-0.272,0.204,0.102,-0.306,-0.087,-0.060,-0.068,-0.123,-0.207,-0.157,-0.265,-0.264,0.029
'0:00.020',-0.060,-0.335,-0.274,0.198,0.106,-0.304,-0.084,-0.058,-0.066,-0.122,-0.206,-0.155,-0.266,-0.269,0.030
'0:00.021',-0.061,-0.335,-0.272,0.198,0.105,-0.303,-0.085,-0.059,-0.070,-0.124,-0.207,-0.157,-0.265,-0.269,0.032
'0:00.022',-0.071,-0.344,-0.272,0.207,0.101,-0.308,-0.086,-0.060,-0.070,-0.123,-0.207,-0.156,-0.263,-0.269,0.032
'0:00.023',-0.076,-0.347,-0.271,0.212,0.097,-0.308,-0.088,-0.064,-0.072,-0.126,-0.207,-0.157,-0.263,-0.271,0.029
'0:00.024',-0.079,-0.341,-0.262,0.209,0.092,-0.301,-0.089,-0.066,-0.074,-0.128,-0.206,-0.156,-0.262,-0.270,0.026
'0:00.025',-0.079,-0.333,-0.253,0.205,0.087,-0.293,-0.091,-0.068,-0.072,-0.128,-0.206,-0.154,-0.261,-0.265,0.025
'0:00.026',-0.077,-0.324,-0.246,0.200,0.085,-0.285,-0.092,-0.069,-0.075,-0.127,-0.205,-0.153,-0.261,-0.256,0.024
'0:00.027',-0.076,-0.330,-0.253,0.203,0.088,-0.291,-0.090,-0.067,-0.074,-0.126,-0.206,-0.156,-0.262,-0.258,0.027
'0:00.028',-0.077,-0.342,-0.264,0.209,0.093,-0.303,-0.089,-0.066,-0.072,-0.127,-0.208,-0.158,-0.264,-0.266,0.027
'0:00.029',-0.075,-0.341,-0.265,0.208,0.095,-0.303,-0.089,-0.066,-0.073,-0.124,-0.204,-0.154,-0.262,-0.268,0.025
'0:00.030',-0.077,-0.340,-0.262,0.208,0.092,-0.300,-0.091,-0.068,-0.074,-0.126,-0.205,-0.152,-0.260,-0.264,0.024
'0:00.031',-0.073,-0.330,-0.256,0.201,0.091,-0.292,-0.092,-0.067,-0.074,-0.128,-0.205,-0.153,-0.261,-0.260,0.023
'0:00.032',-0.070,-0.322,-0.251,0.196,0.090,-0.286,-0.093,-0.070,-0.075,-0.128,-0.204,-0.153,-0.260,-0.258,0.024
'0:00.033',-0.077,-0.331,-0.253,0.204,0.088,-0.292,-0.093,-0.070,-0.075,-0.128,-0.207,-0.153,-0.260,-0.261,0.025
'0:00.034',-0.081,-0.346,-0.265,0.213,0.092,-0.305,-0.093,-0.069,-0.077,-0.131,-0.210,-0.159,-0.264,-0.269,0.029
'0:00.035',-0.084,-0.348,-0.264,0.216,0.090,-0.306,-0.093,-0.070,-0.079,-0.133,-0.211,-0.160,-0.263,-0.267,0.032
'0:00.036',-0.081,-0.345,-0.265,0.213,0.092,-0.305,-0.091,-0.068,-0.075,-0.131,-0.209,-0.158,-0.263,-0.268,0.030
'0:00.037',-0.077,-0.341,-0.263,0.209,0.093,-0.302,-0.093,-0.070,-0.078,-0.133,-0.213,-0.162,-0.265,-0.267,0.030
'0:00.038',-0.080,-0.336,-0.256,0.207,0.088,-0.295,-0.093,-0.071,-0.080,-0.133,-0.212,-0.161,-0.264,-0.264,0.031
'0:00.039',-0.075,-0.342,-0.266,0.208,0.096,-0.303,-0.087,-0.065,-0.074,-0.128,-0.208,-0.158,-0.265,-0.272,0.032
'0:00.040',-0.073,-0.344,-0.271,0.208,0.099,-0.307,-0.083,-0.062,-0.070,-0.124,-0.206,-0.155,-0.265,-0.275,0.032
'0:00.041',-0.074,-0.347,-0.272,0.210,0.099,-0.309,-0.084,-0.061,-0.071,-0.125,-0.204,-0.155,-0.263,-0.276,0.033
'0:00.042',-0.077,-0.347,-0.270,0.212,0.096,-0.308,-0.086,-0.064,-0.073,-0.128,-0.206,-0.155,-0.263,-0.273,0.033
'0:00.043',-0.077,-0.336,-0.258,0.206,0.090,-0.296,-0.089,-0.069,-0.075,-0.129,-0.208,-0.157,-0.264,-0.268,0.031
'0:00.044',-0.075,-0.330,-0.255,0.202,0.090,-0.292,-0.091,-0.068,-0.075,-0.129,-0.206,-0.154,-0.263,-0.265,0.029
'0:00.045',-0.084,-0.341,-0.257,0.212,0.087,-0.299,-0.090,-0.069,-0.076,-0.129,-0.205,-0.153,-0.263,-0.267,0.027
'0:00.046',-0.086,-0.347,-0.261,0.216,0.088,-0.304,-0.090,-0.068,-0.076,-0.128,-0.204,-0.152,-0.263,-0.269,0.026
'0:00.047',-0.083,-0.355,-0.273,0.218,0.096,-0.314,-0.087,-0.065,-0.072,-0.123,-0.201,-0.150,-0.263,-0.274,0.027
'0:00.048',-0.086,-0.358,-0.272,0.222,0.093,-0.316,-0.088,-0.066,-0.072,-0.125,-0.201,-0.152,-0.263,-0.277,0.028
'0:00.049',-0.086,-0.341,-0.256,0.213,0.085,-0.298,-0.092,-0.070,-0.080,-0.131,-0.205,-0.153,-0.262,-0.265,0.027
'0:00.050',-0.080,-0.334,-0.253,0.206,0.086,-0.293,-0.092,-0.072,-0.081,-0.131,-0.205,-0.154,-0.263,-0.261,0.025
'0:00.051',-0.077,-0.335,-0.258,0.206,0.090,-0.296,-0.089,-0.068,-0.077,-0.128,-0.202,-0.150,-0.263,-0.263,0.025
'0:00.052',-0.079,-0.337,-0.257,0.207,0.089,-0.297,-0.090,-0.070,-0.077,-0.127,-0.203,-0.150,-0.262,-0.261,0.026
'0:00.053',-0.082,-0.340,-0.257,0.210,0.088,-0.298,-0.092,-0.071,-0.076,-0.130,-0.207,-0.155,-0.262,-0.260,0.029
'0:00.054',-0.082,-0.345,-0.263,0.213,0.091,-0.304,-0.091,-0.070,-0.077,-0.131,-0.207,-0.155,-0.262,-0.264,0.031
'0:00.055',-0.081,-0.347,-0.266,0.214,0.092,-0.306,-0.089,-0.070,-0.076,-0.130,-0.207,-0.154,-0.262,-0.264,0.034
'0:00.056',-0.082,-0.347,-0.265,0.214,0.091,-0.306,-0.089,-0.070,-0.076,-0.131,-0.208,-0.157,-0.262,-0.259,0.034
'0:00.057',-0.082,-0.345,-0.263,0.213,0.091,-0.304,-0.090,-0.071,-0.079,-0.134,-0.210,-0.159,-0.264,-0.265,0.033
'0:00.058',-0.080,-0.344,-0.265,0.212,0.093,-0.304,-0.086,-0.069,-0.076,-0.132,-0.208,-0.155,-0.265,-0.270,0.033
'0:00.059',-0.075,-0.345,-0.270,0.210,0.097,-0.307,-0.085,-0.066,-0.073,-0.127,-0.205,-0.154,-0.264,-0.268,0.034
'0:00.060',-0.070,-0.341,-0.271,0.205,0.101,-0.306,-0.084,-0.063,-0.070,-0.126,-0.205,-0.153,-0.266,-0.269,0.034
'0:00.061',-0.071,-0.346,-0.274,0.208,0.101,-0.310,-0.083,-0.062,-0.069,-0.126,-0.204,-0.152,-0.265,-0.275,0.035
'0:00.062',-0.078,-0.353,-0.274,0.215,0.098,-0.314,-0.086,-0.065,-0.073,-0.127,-0.204,-0.153,-0.264,-0.280,0.034
'0:00.063',-0.084,-0.357,-0.273,0.220,0.095,-0.315,-0.087,-0.067,-0.075,-0.130,-0.205,-0.153,-0.263,-0.281,0.032
'0:00.064',-0.086,-0.345,-0.258,0.215,0.086,-0.301,-0.092,-0.072,-0.080,-0.133,-0.209,-0.157,-0.263,-0.271,0.031
'0:00.065',-0.089,-0.330,-0.240,0.209,0.075,-0.285,-0.099,-0.080,-0.086,-0.141,-0.215,-0.164,-0.266,-0.257,0.029
'0:00.066',-0.088,-0.324,-0.235,0.205,0.073,-0.279,-0.099,-0.080,-0.087,-0.140,-0.216,-0.165,-0.266,-0.255,0.029
'0:00.067',-0.085,-0.335,-0.250,0.209,0.083,-0.292,-0.093,-0.074,-0.082,-0.134,-0.210,-0.158,-0.264,-0.262,0.031
'0:00.068',-0.080,-0.345,-0.265,0.212,0.092,-0.305,-0.088,-0.070,-0.075,-0.130,-0.203,-0.153,-0.264,-0.273,0.031
'0:00.069',-0.075,-0.328,-0.252,0.202,0.088,-0.290,-0.091,-0.071,-0.078,-0.130,-0.205,-0.155,-0.263,-0.266,0.029
'0:00.070',-0.083,-0.325,-0.242,0.203,0.080,-0.283,-0.096,-0.078,-0.084,-0.138,-0.210,-0.160,-0.263,-0.257,0.028
'0:00.071',-0.086,-0.334,-0.246,0.210,0.080,-0.290,-0.097,-0.079,-0.086,-0.138,-0.211,-0.161,-0.263,-0.261,0.026
'0:00.072',-0.087,-0.348,-0.260,0.217,0.086,-0.304,-0.093,-0.074,-0.079,-0.132,-0.205,-0.153,-0.261,-0.266,0.028
'0:00.073',-0.080,-0.350,-0.271,0.215,0.096,-0.310,-0.087,-0.070,-0.075,-0.128,-0.200,-0.148,-0.260,-0.271,0.030
'0:00.074',-0.071,-0.344,-0.272,0.207,0.101,-0.307,-0.084,-0.065,-0.071,-0.125,-0.200,-0.149,-0.260,-0.272,0.033
'0:00.075',-0.069,-0.342,-0.273,0.205,0.102,-0.307,-0.085,-0.066,-0.072,-0.126,-0.203,-0.151,-0.261,-0.268,0.034
'0:00.076',-0.066,-0.338,-0.272,0.202,0.103,-0.305,-0.086,-0.067,-0.073,-0.128,-0.204,-0.152,-0.263,-0.270,0.035
'0:00.077',-0.073,-0.343,-0.269,0.208,0.098,-0.306,-0.087,-0.069,-0.076,-0.132,-0.207,-0.154,-0.263,-0.270,0.035
'0:00.078',-0.075,-0.344,-0.268,0.209,0.097,-0.306,-0.090,-0.072,-0.080,-0.134,-0.209,-0.155,-0.263,-0.270,0.034
'0:00.079',-0.076,-0.352,-0.276,0.214,0.100,-0.314,-0.088,-0.071,-0.079,-0.132,-0.207,-0.155,-0.263,-0.276,0.035
'0:00.080',-0.081,-0.364,-0.283,0.222,0.102,-0.324,-0.084,-0.067,-0.074,-0.129,-0.203,-0.153,-0.262,-0.279,0.036
'0:00.081',-0.082,-0.362,-0.281,0.222,0.100,-0.322,-0.084,-0.066,-0.074,-0.127,-0.201,-0.150,-0.261,-0.279,0.037
'0:00.082',-0.086,-0.360,-0.274,0.223,0.095,-0.317,-0.087,-0.070,-0.077,-0.131,-0.207,-0.157,-0.264,-0.277,0.036
'0:00.083',-0.086,-0.361,-0.274,0.224,0.093,-0.317,-0.088,-0.071,-0.077,-0.133,-0.209,-0.156,-0.264,-0.278,0.035
'0:00.084',-0.087,-0.355,-0.268,0.221,0.090,-0.311,-0.089,-0.072,-0.080,-0.131,-0.206,-0.152,-0.262,-0.277,0.032
'0:00.085',-0.086,-0.348,-0.262,0.217,0.087,-0.305,-0.091,-0.074,-0.082,-0.131,-0.205,-0.151,-0.260,-0.272,0.029
'0:00.086',-0.088,-0.345,-0.257,0.216,0.085,-0.301,-0.094,-0.076,-0.084,-0.132,-0.205,-0.151,-0.259,-0.267,0.030
'0:00.087',-0.092,-0.351,-0.259,0.221,0.084,-0.304,-0.093,-0.075,-0.084,-0.133,-0.207,-0.154,-0.262,-0.270,0.030
'0:00.088',-0.089,-0.358,-0.269,0.224,0.090,-0.314,-0.090,-0.074,-0.082,-0.133,-0.207,-0.154,-0.263,-0.274,0.032
'0:00.089',-0.085,-0.356,-0.271,0.221,0.093,-0.314,-0.088,-0.071,-0.080,-0.130,-0.204,-0.151,-0.261,-0.268,0.031
'0:00.090',-0.086,-0.354,-0.268,0.220,0.091,-0.311,-0.090,-0.072,-0.080,-0.130,-0.204,-0.149,-0.260,-0.264,0.028
'0:00.091',-0.084,-0.344,-0.260,0.214,0.088,-0.302,-0.093,-0.075,-0.081,-0.132,-0.204,-0.150,-0.260,-0.259,0.026
'0:00.092',-0.080,-0.337,-0.257,0.208,0.088,-0.296,-0.092,-0.075,-0.083,-0.133,-0.205,-0.151,-0.259,-0.254,0.028
'0:00.093',-0.074,-0.328,-0.253,0.201,0.089,-0.290,-0.091,-0.075,-0.084,-0.134,-0.208,-0.154,-0.261,-0.251,0.030
'0:00.094',-0.078,-0.332,-0.253,0.204,0.087,-0.292,-0.091,-0.075,-0.085,-0.137,-0.210,-0.157,-0.262,-0.255,0.033
'0:00.095',-0.086,-0.349,-0.263,0.217,0.089,-0.306,-0.091,-0.074,-0.084,-0.136,-0.211,-0.158,-0.263,-0.265,0.034
'0:00.096',-0.087,-0.358,-0.271,0.222,0.092,-0.315,-0.089,-0.073,-0.082,-0.136,-0.210,-0.157,-0.264,-0.273,0.035
'0:00.097',-0.086,-0.356,-0.270,0.221,0.092,-0.312,-0.090,-0.073,-0.082,-0.135,-0.209,-0.157,-0.264,-0.277,0.034
'0:00.098',-0.079,-0.347,-0.267,0.213,0.094,-0.307,-0.087,-0.071,-0.081,-0.133,-0.207,-0.153,-0.262,-0.272,0.033
'0:00.099',-0.084,-0.360,-0.276,0.222,0.096,-0.318,-0.086,-0.069,-0.079,-0.131,-0.207,-0.153,-0.262,-0.274,0.035
'0:00.100',-0.088,-0.371,-0.283,0.230,0.098,-0.328,-0.086,-0.068,-0.077,-0.131,-0.206,-0.153,-0.263,-0.281,0.037
'0:00.101',-0.086,-0.371,-0.285,0.228,0.101,-0.329,-0.084,-0.067,-0.077,-0.131,-0.207,-0.154,-0.264,-0.284,0.036
'0:00.102',-0.084,-0.365,-0.281,0.225,0.099,-0.324,-0.084,-0.067,-0.077,-0.131,-0.209,-0.153,-0.264,-0.284,0.037
'0:00.103',-0.074,-0.351,-0.277,0.213,0.101,-0.314,-0.082,-0.067,-0.075,-0.127,-0.204,-0.150,-0.263,-0.281,0.035
'0:00.104',-0.076,-0.351,-0.275,0.213,0.100,-0.313,-0.084,-0.068,-0.075,-0.127,-0.203,-0.148,-0.263,-0.282,0.032
'0:00.105',-0.087,-0.360,-0.272,0.224,0.092,-0.316,-0.085,-0.070,-0.077,-0.127,-0.203,-0.147,-0.261,-0.281,0.032
'0:00.106',-0.090,-0.357,-0.267,0.223,0.089,-0.312,-0.088,-0.072,-0.078,-0.125,-0.200,-0.149,-0.260,-0.276,0.029
'0:00.107',-0.084,-0.352,-0.268,0.218,0.092,-0.310,-0.088,-0.071,-0.080,-0.130,-0.204,-0.150,-0.262,-0.275,0.032
'0:00.108',-0.081,-0.355,-0.274,0.217,0.097,-0.315,-0.084,-0.070,-0.078,-0.131,-0.204,-0.148,-0.263,-0.278,0.033
'0:00.109',-0.083,-0.352,-0.269,0.217,0.093,-0.310,-0.087,-0.072,-0.080,-0.130,-0.204,-0.149,-0.262,-0.274,0.033
'0:00.110',-0.087,-0.345,-0.258,0.216,0.086,-0.301,-0.092,-0.077,-0.085,-0.135,-0.207,-0.153,-0.261,-0.265,0.029
'0:00.111',-0.085,-0.339,-0.253,0.211,0.085,-0.296,-0.093,-0.079,-0.086,-0.135,-0.207,-0.152,-0.260,-0.259,0.028
'0:00.112',-0.083,-0.340,-0.257,0.211,0.087,-0.298,-0.093,-0.076,-0.085,-0.133,-0.204,-0.151,-0.261,-0.260,0.029
'0:00.113',-0.086,-0.346,-0.259,0.216,0.086,-0.303,-0.091,-0.075,-0.082,-0.133,-0.205,-0.152,-0.261,-0.264,0.031
'0:00.114',-0.080,-0.346,-0.265,0.213,0.093,-0.305,-0.092,-0.074,-0.082,-0.134,-0.209,-0.152,-0.260,-0.264,0.035
'0:00.115',-0.071,-0.339,-0.268,0.205,0.099,-0.303,-0.090,-0.072,-0.082,-0.135,-0.208,-0.154,-0.262,-0.263,0.035
'0:00.116',-0.073,-0.337,-0.263,0.204,0.096,-0.300,-0.087,-0.070,-0.077,-0.132,-0.207,-0.155,-0.263,-0.262,0.035
'0:00.117',-0.082,-0.342,-0.259,0.211,0.088,-0.300,-0.090,-0.073,-0.081,-0.135,-0.210,-0.156,-0.263,-0.262,0.035
'0:00.118',-0.088,-0.350,-0.261,0.219,0.086,-0.305,-0.091,-0.074,-0.084,-0.136,-0.211,-0.156,-0.262,-0.265,0.033
'0:00.119',-0.088,-0.358,-0.270,0.223,0.091,-0.314,-0.089,-0.071,-0.080,-0.132,-0.208,-0.154,-0.262,-0.272,0.035
'0:00.120',-0.085,-0.355,-0.271,0.220,0.093,-0.313,-0.087,-0.070,-0.079,-0.133,-0.208,-0.154,-0.263,-0.274,0.036
'0:00.121',-0.079,-0.357,-0.278,0.218,0.100,-0.318,-0.082,-0.067,-0.074,-0.130,-0.206,-0.151,-0.263,-0.277,0.037
'0:00.122',-0.082,-0.365,-0.283,0.224,0.101,-0.325,-0.082,-0.065,-0.072,-0.129,-0.203,-0.150,-0.264,-0.281,0.037
'0:00.123',-0.088,-0.364,-0.275,0.226,0.093,-0.320,-0.087,-0.070,-0.077,-0.132,-0.207,-0.152,-0.263,-0.276,0.035
'0:00.124',-0.091,-0.356,-0.265,0.223,0.087,-0.310,-0.091,-0.073,-0.081,-0.135,-0.208,-0.151,-0.261,-0.274,0.034
'0:00.125',-0.092,-0.361,-0.268,0.227,0.088,-0.315,-0.088,-0.071,-0.079,-0.131,-0.203,-0.148,-0.260,-0.281,0.032
'0:00.126',-0.092,-0.361,-0.269,0.227,0.088,-0.315,-0.088,-0.072,-0.079,-0.131,-0.204,-0.148,-0.261,-0.280,0.030
'0:00.127',-0.092,-0.357,-0.265,0.225,0.086,-0.311,-0.089,-0.073,-0.080,-0.132,-0.205,-0.151,-0.261,-0.275,0.031
'0:00.128',-0.093,-0.369,-0.275,0.231,0.091,-0.322,-0.086,-0.071,-0.076,-0.129,-0.201,-0.149,-0.261,-0.282,0.033
'0:00.129',-0.093,-0.361,-0.268,0.227,0.087,-0.315,-0.091,-0.074,-0.079,-0.132,-0.203,-0.149,-0.260,-0.280,0.032
'0:00.130',-0.096,-0.347,-0.252,0.221,0.079,-0.300,-0.096,-0.080,-0.083,-0.137,-0.207,-0.153,-0.258,-0.270,0.030
'0:00.131',-0.098,-0.348,-0.250,0.223,0.076,-0.299,-0.097,-0.081,-0.085,-0.138,-0.209,-0.153,-0.260,-0.264,0.029
'0:00.132',-0.098,-0.344,-0.246,0.221,0.074,-0.295,-0.097,-0.081,-0.086,-0.140,-0.210,-0.154,-0.261,-0.262,0.029
'0:00.133',-0.095,-0.346,-0.252,0.221,0.079,-0.299,-0.095,-0.080,-0.086,-0.139,-0.210,-0.155,-0.260,-0.263,0.031
'0:00.134',-0.096,-0.355,-0.259,0.226,0.082,-0.307,-0.095,-0.080,-0.087,-0.140,-0.212,-0.156,-0.261,-0.266,0.034
'0:00.135',-0.100,-0.363,-0.263,0.231,0.082,-0.313,-0.096,-0.079,-0.086,-0.141,-0.212,-0.159,-0.262,-0.271,0.036
'0:00.136',-0.097,-0.368,-0.271,0.233,0.087,-0.319,-0.091,-0.075,-0.084,-0.137,-0.211,-0.157,-0.263,-0.270,0.037
'0:00.137',-0.096,-0.366,-0.271,0.231,0.088,-0.319,-0.092,-0.077,-0.084,-0.139,-0.211,-0.155,-0.263,-0.270,0.036
'0:00.138',-0.098,-0.364,-0.266,0.231,0.085,-0.316,-0.094,-0.079,-0.083,-0.138,-0.208,-0.152,-0.259,-0.275,0.035
'0:00.139',-0.098,-0.359,-0.261,0.228,0.082,-0.310,-0.094,-0.079,-0.085,-0.139,-0.211,-0.155,-0.261,-0.275,0.036
'0:00.140',-0.089,-0.355,-0.265,0.222,0.088,-0.310,-0.092,-0.075,-0.083,-0.139,-0.212,-0.157,-0.263,-0.271,0.040
'0:00.141',-0.084,-0.351,-0.267,0.217,0.091,-0.308,-0.088,-0.073,-0.081,-0.136,-0.209,-0.155,-0.262,-0.270,0.040
'0:00.142',-0.092,-0.358,-0.265,0.225,0.087,-0.311,-0.090,-0.075,-0.081,-0.136,-0.208,-0.154,-0.261,-0.273,0.038
'0:00.143',-0.099,-0.364,-0.265,0.232,0.083,-0.315,-0.092,-0.077,-0.083,-0.137,-0.210,-0.153,-0.261,-0.276,0.036
'0:00.144',-0.097,-0.355,-0.257,0.226,0.081,-0.306,-0.094,-0.079,-0.086,-0.140,-0.212,-0.157,-0.262,-0.274,0.035
'0:00.145',-0.091,-0.339,-0.247,0.214,0.079,-0.293,-0.096,-0.079,-0.086,-0.139,-0.211,-0.156,-0.263,-0.269,0.034
'0:00.146',-0.080,-0.331,-0.250,0.205,0.085,-0.290,-0.090,-0.076,-0.082,-0.134,-0.208,-0.151,-0.262,-0.270,0.033
'0:00.147',-0.080,-0.343,-0.263,0.211,0.091,-0.302,-0.086,-0.072,-0.079,-0.132,-0.203,-0.147,-0.261,-0.277,0.036
'0:00.148',-0.090,-0.354,-0.263,0.222,0.086,-0.308,-0.086,-0.072,-0.080,-0.132,-0.204,-0.149,-0.262,-0.279,0.035
'0:00.149',-0.093,-0.357,-0.264,0.225,0.086,-0.310,-0.087,-0.072,-0.079,-0.132,-0.204,-0.148,-0.261,-0.276,0.032
'0:00.150',-0.089,-0.349,-0.259,0.219,0.085,-0.304,-0.091,-0.076,-0.081,-0.132,-0.203,-0.148,-0.258,-0.265,0.029
'0:00.151',-0.086,-0.338,-0.251,0.211,0.083,-0.294,-0.093,-0.079,-0.085,-0.135,-0.204,-0.150,-0.259,-0.259,0.029
'0:00.152',-0.091,-0.341,-0.249,0.216,0.079,-0.295,-0.093,-0.077,-0.086,-0.137,-0.207,-0.151,-0.261,-0.259,0.032
'0:00.153',-0.091,-0.338,-0.247,0.214,0.078,-0.292,-0.094,-0.078,-0.085,-0.136,-0.208,-0.154,-0.261,-0.259,0.033
'0:00.154',-0.086,-0.338,-0.251,0.212,0.083,-0.294,-0.093,-0.077,-0.084,-0.138,-0.210,-0.155,-0.262,-0.262,0.036
'0:00.155',-0.087,-0.351,-0.263,0.219,0.087,-0.307,-0.088,-0.073,-0.080,-0.136,-0.208,-0.152,-0.263,-0.271,0.036
'0:00.156',-0.090,-0.359,-0.269,0.224,0.089,-0.314,-0.088,-0.072,-0.080,-0.135,-0.208,-0.152,-0.262,-0.273,0.036
'0:00.157',-0.093,-0.353,-0.260,0.223,0.084,-0.306,-0.091,-0.073,-0.082,-0.136,-0.210,-0.153,-0.263,-0.267,0.036
'0:00.158',-0.087,-0.348,-0.261,0.217,0.087,-0.304,-0.088,-0.071,-0.079,-0.132,-0.207,-0.150,-0.262,-0.272,0.035
'0:00.159',-0.092,-0.362,-0.270,0.227,0.089,-0.316,-0.087,-0.071,-0.080,-0.133,-0.206,-0.151,-0.262,-0.281,0.037
'0:00.160',-0.097,-0.371,-0.274,0.234,0.089,-0.323,-0.086,-0.071,-0.079,-0.135,-0.207,-0.152,-0.262,-0.282,0.039
'0:00.161',-0.094,-0.366,-0.273,0.230,0.090,-0.320,-0.086,-0.071,-0.079,-0.133,-0.208,-0.153,-0.263,-0.279,0.038
'0:00.162',-0.096,-0.366,-0.269,0.231,0.086,-0.318,-0.090,-0.072,-0.083,-0.137,-0.213,-0.158,-0.263,-0.275,0.039
'0:00.163',-0.096,-0.361,-0.265,0.228,0.085,-0.314,-0.091,-0.074,-0.085,-0.139,-0.212,-0.157,-0.263,-0.272,0.037
'0:00.164',-0.096,-0.352,-0.255,0.224,0.080,-0.303,-0.093,-0.079,-0.087,-0.138,-0.210,-0.156,-0.262,-0.271,0.034
'0:00.165',-0.098,-0.352,-0.255,0.225,0.079,-0.303,-0.093,-0.077,-0.086,-0.136,-0.207,-0.151,-0.260,-0.268,0.034
'0:00.166',-0.091,-0.348,-0.256,0.220,0.083,-0.302,-0.091,-0.074,-0.083,-0.134,-0.206,-0.148,-0.260,-0.265,0.032
'0:00.167',-0.080,-0.340,-0.260,0.209,0.090,-0.299,-0.088,-0.073,-0.082,-0.132,-0.205,-0.148,-0.261,-0.263,0.034
'0:00.168',-0.071,-0.332,-0.260,0.201,0.095,-0.295,-0.085,-0.069,-0.077,-0.129,-0.200,-0.143,-0.259,-0.266,0.033
'0:00.169',-0.076,-0.326,-0.248,0.201,0.086,-0.287,-0.087,-0.072,-0.079,-0.131,-0.202,-0.145,-0.258,-0.265,0.034
'0:00.170',-0.096,-0.341,-0.245,0.218,0.075,-0.293,-0.095,-0.080,-0.087,-0.138,-0.211,-0.153,-0.260,-0.262,0.033
'0:00.171',-0.103,-0.351,-0.247,0.228,0.072,-0.299,-0.100,-0.084,-0.091,-0.141,-0.213,-0.156,-0.258,-0.259,0.030
'0:00.172',-0.102,-0.345,-0.243,0.224,0.071,-0.294,-0.099,-0.086,-0.091,-0.141,-0.212,-0.157,-0.259,-0.254,0.033
'0:00.173',-0.100,-0.345,-0.245,0.222,0.073,-0.295,-0.099,-0.083,-0.090,-0.142,-0.215,-0.155,-0.259,-0.255,0.034
'0:00.174',-0.097,-0.353,-0.256,0.225,0.080,-0.304,-0.096,-0.080,-0.086,-0.141,-0.215,-0.156,-0.261,-0.263,0.036
'0:00.175',-0.099,-0.359,-0.260,0.229,0.081,-0.309,-0.095,-0.079,-0.087,-0.141,-0.214,-0.158,-0.263,-0.265,0.037
'0:00.176',-0.092,-0.355,-0.263,0.224,0.086,-0.309,-0.090,-0.076,-0.085,-0.139,-0.212,-0.155,-0.261,-0.265,0.038
'0:00.177',-0.081,-0.344,-0.263,0.212,0.091,-0.303,-0.087,-0.072,-0.082,-0.134,-0.206,-0.151,-0.262,-0.266,0.037
'0:00.178',-0.079,-0.341,-0.262,0.209,0.091,-0.301,-0.088,-0.072,-0.082,-0.134,-0.206,-0.148,-0.260,-0.263,0.036
'0:00.179',-0.083,-0.350,-0.267,0.216,0.092,-0.308,-0.087,-0.071,-0.080,-0.135,-0.208,-0.150,-0.261,-0.264,0.038
'0:00.180',-0.090,-0.360,-0.270,0.225,0.090,-0.315,-0.087,-0.071,-0.081,-0.135,-0.209,-0.153,-0.263,-0.266,0.039
'0:00.181',-0.099,-0.369,-0.270,0.234,0.086,-0.320,-0.091,-0.075,-0.085,-0.138,-0.213,-0.157,-0.262,-0.269,0.040
'0:00.182',-0.096,-0.368,-0.271,0.232,0.087,-0.320,-0.089,-0.072,-0.082,-0.137,-0.210,-0.154,-0.263,-0.274,0.040
'0:00.183',-0.097,-0.368,-0.271,0.232,0.087,-0.319,-0.089,-0.073,-0.082,-0.136,-0.207,-0.152,-0.261,-0.275,0.037
'0:00.184',-0.102,-0.371,-0.269,0.236,0.084,-0.320,-0.092,-0.076,-0.084,-0.137,-0.208,-0.154,-0.261,-0.279,0.035
'0:00.185',-0.097,-0.363,-0.267,0.230,0.086,-0.315,-0.092,-0.075,-0.085,-0.136,-0.208,-0.152,-0.261,-0.277,0.035
'0:00.186',-0.090,-0.347,-0.257,0.218,0.084,-0.302,-0.092,-0.076,-0.085,-0.135,-0.207,-0.151,-0.260,-0.270,0.033
'0:00.187',-0.086,-0.342,-0.255,0.213,0.085,-0.298,-0.090,-0.073,-0.083,-0.133,-0.206,-0.149,-0.260,-0.270,0.033
'0:00.188',-0.085,-0.345,-0.260,0.214,0.088,-0.302,-0.088,-0.072,-0.082,-0.132,-0.203,-0.146,-0.259,-0.272,0.035
'0:00.189',-0.080,-0.338,-0.258,0.209,0.089,-0.298,-0.089,-0.072,-0.083,-0.132,-0.203,-0.147,-0.259,-0.270,0.033
'0:00.190',-0.082,-0.335,-0.253,0.208,0.086,-0.293,-0.092,-0.075,-0.086,-0.133,-0.205,-0.149,-0.260,-0.265,0.031
'0:00.191',-0.089,-0.331,-0.241,0.209,0.076,-0.286,-0.098,-0.082,-0.089,-0.137,-0.207,-0.154,-0.259,-0.256,0.031
'0:00.192',-0.084,-0.322,-0.238,0.203,0.077,-0.280,-0.097,-0.081,-0.089,-0.141,-0.214,-0.153,-0.259,-0.256,0.033
'0:00.193',-0.079,-0.324,-0.243,0.201,0.083,-0.283,-0.095,-0.080,-0.088,-0.140,-0.214,-0.153,-0.260,-0.257,0.035
'0:00.194',-0.085,-0.334,-0.248,0.209,0.082,-0.291,-0.094,-0.079,-0.089,-0.138,-0.212,-0.155,-0.259,-0.255,0.036
'0:00.195',-0.087,-0.344,-0.256,0.215,0.085,-0.300,-0.093,-0.077,-0.087,-0.139,-0.213,-0.155,-0.260,-0.260,0.037
'0:00.196',-0.089,-0.350,-0.261,0.220,0.086,-0.305,-0.093,-0.076,-0.086,-0.137,-0.208,-0.153,-0.259,-0.268,0.038
'0:00.197',-0.092,-0.344,-0.252,0.218,0.080,-0.298,-0.095,-0.079,-0.088,-0.140,-0.211,-0.153,-0.258,-0.266,0.036
'0:00.198',-0.093,-0.342,-0.248,0.217,0.078,-0.295,-0.096,-0.082,-0.092,-0.142,-0.216,-0.157,-0.259,-0.260,0.035
'0:00.199',-0.094,-0.349,-0.255,0.222,0.081,-0.302,-0.092,-0.077,-0.088,-0.140,-0.214,-0.157,-0.261,-0.266,0.037
'0:00.200',-0.098,-0.362,-0.264,0.230,0.083,-0.312,-0.091,-0.077,-0.085,-0.140,-0.214,-0.158,-0.263,-0.272,0.040
'0:00.201',-0.101,-0.373,-0.271,0.237,0.085,-0.322,-0.089,-0.074,-0.083,-0.137,-0.211,-0.153,-0.261,-0.276,0.040
'0:00.202',-0.099,-0.366,-0.268,0.232,0.085,-0.317,-0.089,-0.073,-0.083,-0.137,-0.211,-0.151,-0.261,-0.277,0.038
'0:00.203',-0.093,-0.357,-0.265,0.225,0.086,-0.311,-0.090,-0.074,-0.083,-0.136,-0.210,-0.151,-0.260,-0.273,0.037
'0:00.204',-0.095,-0.357,-0.262,0.226,0.084,-0.309,-0.091,-0.074,-0.080,-0.130,-0.205,-0.146,-0.257,-0.274,0.034
'0:00.205',-0.097,-0.356,-0.259,0.226,0.082,-0.307,-0.093,-0.076,-0.084,-0.135,-0.208,-0.149,-0.259,-0.276,0.035
'0:00.206',-0.096,-0.352,-0.256,0.224,0.081,-0.303,-0.094,-0.079,-0.087,-0.138,-0.210,-0.151,-0.259,-0.270,0.034
'0:00.207',-0.095,-0.350,-0.255,0.222,0.080,-0.302,-0.093,-0.077,-0.085,-0.136,-0.208,-0.151,-0.260,-0.276,0.033
'0:00.208',-0.088,-0.350,-0.261,0.219,0.086,-0.305,-0.089,-0.074,-0.083,-0.134,-0.207,-0.148,-0.260,-0.278,0.035
'0:00.209',-0.086,-0.348,-0.262,0.217,0.088,-0.305,-0.089,-0.074,-0.081,-0.131,-0.204,-0.144,-0.258,-0.268,0.033
'0:00.210',-0.087,-0.351,-0.264,0.219,0.088,-0.307,-0.089,-0.072,-0.081,-0.130,-0.202,-0.145,-0.260,-0.268,0.032
'0:00.211',-0.088,-0.348,-0.260,0.218,0.086,-0.304,-0.093,-0.075,-0.083,-0.133,-0.204,-0.146,-0.258,-0.266,0.030
'0:00.212',-0.094,-0.346,-0.252,0.220,0.080,-0.299,-0.099,-0.082,-0.089,-0.138,-0.209,-0.152,-0.259,-0.263,0.030
'0:00.213',-0.100,-0.353,-0.253,0.226,0.076,-0.302,-0.096,-0.082,-0.089,-0.140,-0.211,-0.153,-0.259,-0.265,0.032
'0:00.214',-0.096,-0.359,-0.262,0.227,0.084,-0.310,-0.091,-0.076,-0.084,-0.136,-0.209,-0.150,-0.259,-0.272,0.034
'0:00.215',-0.089,-0.354,-0.266,0.222,0.088,-0.310,-0.091,-0.076,-0.084,-0.138,-0.210,-0.152,-0.259,-0.273,0.036
'0:00.216',-0.091,-0.353,-0.262,0.222,0.086,-0.307,-0.092,-0.077,-0.085,-0.139,-0.210,-0.154,-0.260,-0.269,0.036
'0:00.217',-0.093,-0.363,-0.270,0.228,0.088,-0.316,-0.090,-0.075,-0.083,-0.135,-0.210,-0.152,-0.262,-0.272,0.035
'0:00.218',-0.093,-0.357,-0.263,0.225,0.085,-0.310,-0.090,-0.076,-0.085,-0.135,-0.209,-0.152,-0.260,-0.271,0.035
'0:00.219',-0.092,-0.354,-0.262,0.223,0.085,-0.308,-0.091,-0.077,-0.083,-0.136,-0.210,-0.154,-0.261,-0.275,0.036
'0:00.220',-0.089,-0.363,-0.274,0.226,0.093,-0.319,-0.087,-0.072,-0.078,-0.135,-0.210,-0.152,-0.262,-0.285,0.037
'0:00.221',-0.088,-0.357,-0.269,0.223,0.090,-0.314,-0.087,-0.071,-0.077,-0.133,-0.209,-0.151,-0.262,-0.284,0.037
'0:00.222',-0.086,-0.351,-0.265,0.218,0.089,-0.308,-0.090,-0.074,-0.082,-0.138,-0.214,-0.158,-0.265,-0.279,0.037
'0:00.223',-0.088,-0.354,-0.266,0.221,0.088,-0.309,-0.091,-0.075,-0.083,-0.139,-0.213,-0.158,-0.264,-0.278,0.036
'0:00.224',-0.092,-0.356,-0.264,0.224,0.086,-0.310,-0.090,-0.076,-0.080,-0.134,-0.207,-0.151,-0.261,-0.277,0.035
'0:00.225',-0.092,-0.357,-0.265,0.224,0.086,-0.311,-0.089,-0.074,-0.080,-0.132,-0.205,-0.150,-0.260,-0.275,0.032
'0:00.226',-0.093,-0.353,-0.260,0.223,0.084,-0.306,-0.093,-0.076,-0.084,-0.134,-0.207,-0.151,-0.260,-0.269,0.031
'0:00.227',-0.098,-0.358,-0.261,0.228,0.082,-0.309,-0.095,-0.078,-0.085,-0.134,-0.207,-0.151,-0.259,-0.272,0.032
'0:00.228',-0.097,-0.360,-0.263,0.229,0.083,-0.311,-0.095,-0.079,-0.085,-0.135,-0.210,-0.153,-0.260,-0.272,0.033
'0:00.229',-0.093,-0.348,-0.255,0.220,0.081,-0.301,-0.096,-0.082,-0.087,-0.139,-0.212,-0.155,-0.260,-0.264,0.032
'0:00.230',-0.095,-0.350,-0.255,0.222,0.081,-0.302,-0.096,-0.081,-0.086,-0.137,-0.209,-0.152,-0.260,-0.267,0.029
'0:00.231',-0.096,-0.350,-0.254,0.223,0.080,-0.302,-0.097,-0.080,-0.088,-0.138,-0.209,-0.151,-0.258,-0.272,0.030
'0:00.232',-0.093,-0.348,-0.254,0.221,0.081,-0.301,-0.096,-0.079,-0.087,-0.136,-0.208,-0.151,-0.259,-0.271,0.029
'0:00.233',-0.090,-0.344,-0.255,0.217,0.083,-0.299,-0.096,-0.081,-0.087,-0.139,-0.212,-0.155,-0.261,-0.266,0.031
'0:00.234',-0.086,-0.347,-0.261,0.216,0.087,-0.303,-0.094,-0.079,-0.086,-0.137,-0.211,-0.155,-0.260,-0.266,0.034
'0:00.235',-0.080,-0.346,-0.266,0.212,0.093,-0.306,-0.090,-0.074,-0.082,-0.136,-0.209,-0.153,-0.261,-0.270,0.035
'0:00.236',-0.075,-0.340,-0.265,0.207,0.095,-0.302,-0.089,-0.073,-0.082,-0.137,-0.208,-0.153,-0.261,-0.266,0.036
'0:00.237',-0.075,-0.342,-0.267,0.208,0.096,-0.304,-0.088,-0.072,-0.081,-0.133,-0.206,-0.149,-0.260,-0.268,0.034
'0:00.238',-0.073,-0.342,-0.269,0.207,0.098,-0.305,-0.086,-0.071,-0.078,-0.132,-0.203,-0.147,-0.260,-0.272,0.033
'0:00.239',-0.075,-0.350,-0.275,0.213,0.100,-0.312,-0.086,-0.070,-0.076,-0.131,-0.204,-0.148,-0.261,-0.275,0.035
'0:00.240',-0.081,-0.360,-0.279,0.221,0.099,-0.320,-0.084,-0.070,-0.077,-0.133,-0.206,-0.151,-0.263,-0.278,0.037
'0:00.241',-0.085,-0.369,-0.284,0.227,0.100,-0.327,-0.082,-0.069,-0.076,-0.131,-0.204,-0.148,-0.261,-0.283,0.038
'0:00.242',-0.085,-0.374,-0.288,0.230,0.102,-0.332,-0.082,-0.067,-0.075,-0.129,-0.205,-0.147,-0.262,-0.289,0.038
'0:00.243',-0.081,-0.368,-0.287,0.225,0.103,-0.328,-0.082,-0.068,-0.074,-0.128,-0.203,-0.147,-0.262,-0.287,0.035
'0:00.244',-0.080,-0.348,-0.268,0.213,0.095,-0.308,-0.087,-0.072,-0.080,-0.130,-0.205,-0.148,-0.259,-0.274,0.034
'0:00.245',-0.082,-0.334,-0.252,0.208,0.085,-0.293,-0.093,-0.080,-0.085,-0.137,-0.210,-0.152,-0.259,-0.266,0.032
'0:00.246',-0.081,-0.337,-0.255,0.208,0.087,-0.295,-0.093,-0.078,-0.084,-0.136,-0.208,-0.151,-0.259,-0.268,0.031
'0:00.247',-0.079,-0.344,-0.265,0.211,0.093,-0.305,-0.091,-0.074,-0.082,-0.134,-0.207,-0.152,-0.260,-0.278,0.034
'0:00.248',-0.081,-0.348,-0.267,0.214,0.093,-0.308,-0.090,-0.074,-0.080,-0.133,-0.206,-0.150,-0.260,-0.281,0.033
'0:00.249',-0.084,-0.340,-0.256,0.211,0.086,-0.297,-0.091,-0.078,-0.083,-0.133,-0.207,-0.152,-0.260,-0.274,0.031
'0:00.250',-0.083,-0.337,-0.254,0.209,0.086,-0.295,-0.092,-0.080,-0.086,-0.135,-0.209,-0.153,-0.261,-0.269,0.030
'0:00.251',-0.076,-0.331,-0.254,0.203,0.089,-0.292,-0.092,-0.076,-0.083,-0.134,-0.205,-0.148,-0.260,-0.265,0.029
'0:00.252',-0.075,-0.330,-0.254,0.202,0.089,-0.291,-0.092,-0.077,-0.082,-0.134,-0.206,-0.151,-0.260,-0.262,0.029
'0:00.253',-0.080,-0.339,-0.259,0.209,0.089,-0.299,-0.094,-0.079,-0.083,-0.135,-0.209,-0.153,-0.260,-0.263,0.030
'0:00.254',-0.082,-0.350,-0.268,0.216,0.093,-0.309,-0.093,-0.077,-0.084,-0.137,-0.210,-0.154,-0.260,-0.264,0.034
'0:00.255',-0.088,-0.362,-0.274,0.225,0.093,-0.318,-0.093,-0.077,-0.082,-0.135,-0.210,-0.154,-0.259,-0.267,0.035
'0:00.256',-0.092,-0.367,-0.275,0.230,0.091,-0.321,-0.093,-0.076,-0.083,-0.134,-0.209,-0.154,-0.259,-0.274,0.035
'0:00.257',-0.088,-0.362,-0.274,0.225,0.093,-0.318,-0.095,-0.077,-0.086,-0.140,-0.211,-0.155,-0.261,-0.273,0.034
'0:00.258',-0.085,-0.353,-0.269,0.219,0.092,-0.311,-0.094,-0.076,-0.084,-0.138,-0.209,-0.153,-0.261,-0.267,0.034
'0:00.259',-0.087,-0.362,-0.275,0.225,0.095,-0.319,-0.091,-0.076,-0.084,-0.139,-0.210,-0.155,-0.261,-0.271,0.036
'0:00.260',-0.091,-0.371,-0.280,0.232,0.095,-0.326,-0.090,-0.074,-0.083,-0.138,-0.211,-0.155,-0.261,-0.275,0.038
'0:00.261',-0.088,-0.368,-0.279,0.228,0.096,-0.324,-0.088,-0.070,-0.079,-0.134,-0.207,-0.151,-0.260,-0.279,0.037
'0:00.262',-0.086,-0.371,-0.284,0.229,0.100,-0.328,-0.087,-0.070,-0.079,-0.134,-0.206,-0.151,-0.261,-0.285,0.036
'0:00.263',-0.088,-0.374,-0.285,0.231,0.099,-0.330,-0.086,-0.070,-0.079,-0.133,-0.204,-0.151,-0.262,-0.286,0.036
'0:00.264',-0.083,-0.362,-0.279,0.223,0.098,-0.321,-0.087,-0.072,-0.079,-0.131,-0.204,-0.148,-0.262,-0.281,0.033
'0:00.265',-0.072,-0.338,-0.266,0.205,0.097,-0.301,-0.089,-0.073,-0.079,-0.131,-0.202,-0.147,-0.261,-0.274,0.030
'0:00.266',-0.062,-0.327,-0.264,0.195,0.101,-0.295,-0.085,-0.070,-0.075,-0.128,-0.197,-0.142,-0.260,-0.274,0.030
'0:00.267',-0.071,-0.339,-0.268,0.205,0.099,-0.303,-0.086,-0.070,-0.077,-0.130,-0.201,-0.144,-0.259,-0.274,0.032
'0:00.268',-0.082,-0.352,-0.270,0.216,0.095,-0.311,-0.089,-0.074,-0.081,-0.134,-0.206,-0.150,-0.261,-0.271,0.034
'0:00.269',-0.073,-0.342,-0.268,0.207,0.098,-0.305,-0.086,-0.072,-0.078,-0.130,-0.201,-0.145,-0.259,-0.268,0.032
'0:00.270',-0.062,-0.332,-0.269,0.197,0.104,-0.300,-0.085,-0.071,-0.075,-0.127,-0.197,-0.141,-0.257,-0.269,0.031
'0:00.271',-0.060,-0.329,-0.269,0.195,0.104,-0.299,-0.085,-0.069,-0.076,-0.127,-0.197,-0.140,-0.258,-0.270,0.031
'0:00.272',-0.062,-0.325,-0.262,0.194,0.100,-0.293,-0.086,-0.070,-0.077,-0.129,-0.198,-0.141,-0.257,-0.264,0.032
'0:00.273',-0.061,-0.328,-0.267,0.195,0.103,-0.297,-0.086,-0.069,-0.074,-0.128,-0.200,-0.142,-0.258,-0.265,0.033
'0:00.274',-0.067,-0.340,-0.273,0.203,0.103,-0.306,-0.085,-0.070,-0.075,-0.129,-0.199,-0.144,-0.259,-0.272,0.035
'0:00.275',-0.074,-0.346,-0.271,0.210,0.099,-0.308,-0.088,-0.074,-0.080,-0.132,-0.202,-0.150,-0.260,-0.273,0.036
'0:00.276',-0.073,-0.344,-0.271,0.208,0.099,-0.307,-0.087,-0.072,-0.078,-0.135,-0.207,-0.151,-0.261,-0.271,0.037
'0:00.277',-0.076,-0.344,-0.268,0.210,0.096,-0.306,-0.088,-0.073,-0.078,-0.133,-0.203,-0.148,-0.259,-0.268,0.034
'0:00.278',-0.079,-0.352,-0.273,0.215,0.097,-0.312,-0.089,-0.073,-0.080,-0.130,-0.201,-0.148,-0.259,-0.274,0.034
'0:00.279',-0.077,-0.368,-0.290,0.223,0.106,-0.329,-0.084,-0.067,-0.073,-0.131,-0.204,-0.146,-0.260,-0.285,0.039
'0:00.280',-0.079,-0.365,-0.286,0.222,0.104,-0.326,-0.087,-0.070,-0.075,-0.133,-0.207,-0.150,-0.261,-0.281,0.041
'0:00.281',-0.079,-0.361,-0.281,0.220,0.101,-0.321,-0.089,-0.072,-0.078,-0.135,-0.208,-0.153,-0.262,-0.278,0.040
'0:00.282',-0.083,-0.368,-0.285,0.225,0.102,-0.327,-0.085,-0.068,-0.074,-0.131,-0.203,-0.147,-0.260,-0.283,0.040
'0:00.283',-0.080,-0.365,-0.284,0.222,0.102,-0.325,-0.083,-0.067,-0.072,-0.128,-0.201,-0.145,-0.260,-0.285,0.037
'0:00.284',-0.081,-0.357,-0.276,0.219,0.098,-0.317,-0.087,-0.071,-0.076,-0.132,-0.203,-0.147,-0.259,-0.278,0.034
'0:00.285',-0.075,-0.343,-0.268,0.208,0.097,-0.305,-0.089,-0.072,-0.077,-0.133,-0.203,-0.146,-0.258,-0.270,0.034
'0:00.286',-0.073,-0.345,-0.272,0.209,0.100,-0.308,-0.085,-0.070,-0.075,-0.129,-0.200,-0.142,-0.258,-0.273,0.033
'0:00.287',-0.076,-0.348,-0.272,0.212,0.098,-0.310,-0.086,-0.071,-0.077,-0.130,-0.201,-0.144,-0.259,-0.274,0.034
'0:00.288',-0.074,-0.348,-0.273,0.211,0.099,-0.310,-0.086,-0.070,-0.075,-0.130,-0.201,-0.144,-0.259,-0.273,0.035
'0:00.289',-0.083,-0.356,-0.273,0.219,0.095,-0.315,-0.089,-0.075,-0.081,-0.133,-0.204,-0.146,-0.257,-0.268,0.034
'0:00.290',-0.086,-0.356,-0.270,0.221,0.092,-0.313,-0.092,-0.077,-0.083,-0.135,-0.204,-0.146,-0.256,-0.268,0.032
'0:00.291',-0.085,-0.355,-0.270,0.220,0.093,-0.312,-0.089,-0.074,-0.079,-0.132,-0.202,-0.143,-0.257,-0.275,0.032
'0:00.292',-0.086,-0.353,-0.267,0.219,0.091,-0.310,-0.090,-0.075,-0.080,-0.133,-0.206,-0.146,-0.258,-0.276,0.032
'0:00.293',-0.087,-0.352,-0.265,0.220,0.089,-0.308,-0.092,-0.075,-0.080,-0.134,-0.208,-0.148,-0.260,-0.272,0.032
'0:00.294',-0.086,-0.355,-0.269,0.221,0.091,-0.312,-0.092,-0.075,-0.080,-0.133,-0.207,-0.149,-0.260,-0.269,0.035
'0:00.295',-0.084,-0.360,-0.276,0.222,0.096,-0.318,-0.088,-0.074,-0.079,-0.134,-0.208,-0.150,-0.260,-0.271,0.037
'0:00.296',-0.083,-0.363,-0.281,0.223,0.100,-0.322,-0.088,-0.073,-0.077,-0.135,-0.208,-0.151,-0.262,-0.277,0.037
'0:00.297',-0.082,-0.367,-0.284,0.225,0.102,-0.326,-0.090,-0.073,-0.077,-0.134,-0.207,-0.150,-0.260,-0.278,0.036
'0:00.298',-0.084,-0.367,-0.283,0.225,0.100,-0.325,-0.089,-0.075,-0.079,-0.133,-0.207,-0.150,-0.259,-0.279,0.036
'0:00.299',-0.085,-0.371,-0.286,0.228,0.101,-0.329,-0.085,-0.070,-0.073,-0.129,-0.205,-0.148,-0.260,-0.284,0.036
'0:00.300',-0.086,-0.382,-0.295,0.234,0.105,-0.339,-0.082,-0.066,-0.073,-0.130,-0.205,-0.146,-0.261,-0.291,0.038
'0:00.301',-0.084,-0.381,-0.296,0.233,0.106,-0.339,-0.084,-0.067,-0.074,-0.131,-0.205,-0.148,-0.261,-0.292,0.040
'0:00.302',-0.076,-0.377,-0.300,0.226,0.112,-0.338,-0.081,-0.064,-0.069,-0.126,-0.201,-0.143,-0.259,-0.292,0.038
'0:00.303',-0.073,-0.369,-0.295,0.221,0.111,-0.332,-0.082,-0.066,-0.070,-0.127,-0.201,-0.142,-0.259,-0.291,0.037
'0:00.304',-0.078,-0.369,-0.290,0.224,0.106,-0.330,-0.085,-0.069,-0.073,-0.128,-0.202,-0.142,-0.257,-0.288,0.036
'0:00.305',-0.084,-0.368,-0.284,0.226,0.101,-0.327,-0.086,-0.071,-0.074,-0.130,-0.203,-0.144,-0.259,-0.284,0.034
'0:00.306',-0.087,-0.367,-0.280,0.227,0.097,-0.324,-0.090,-0.074,-0.079,-0.132,-0.204,-0.147,-0.258,-0.281,0.033
'0:00.307',-0.083,-0.369,-0.286,0.226,0.102,-0.328,-0.091,-0.073,-0.077,-0.130,-0.205,-0.146,-0.257,-0.283,0.035
'0:00.308',-0.081,-0.366,-0.285,0.224,0.103,-0.326,-0.089,-0.073,-0.078,-0.132,-0.204,-0.147,-0.259,-0.283,0.035
'0:00.309',-0.079,-0.357,-0.278,0.218,0.100,-0.318,-0.087,-0.070,-0.075,-0.129,-0.201,-0.142,-0.256,-0.278,0.033
'0:00.310',-0.075,-0.346,-0.270,0.210,0.098,-0.308,-0.088,-0.072,-0.076,-0.130,-0.201,-0.144,-0.258,-0.273,0.032
'0:00.311',-0.078,-0.351,-0.272,0.214,0.097,-0.311,-0.088,-0.074,-0.082,-0.134,-0.205,-0.147,-0.260,-0.275,0.033
'0:00.312',-0.079,-0.352,-0.273,0.215,0.098,-0.312,-0.089,-0.072,-0.080,-0.134,-0.203,-0.145,-0.258,-0.271,0.034
'0:00.313',-0.079,-0.359,-0.280,0.218,0.101,-0.320,-0.089,-0.073,-0.077,-0.130,-0.203,-0.147,-0.258,-0.275,0.034
'0:00.314',-0.081,-0.374,-0.293,0.228,0.106,-0.334,-0.086,-0.070,-0.075,-0.131,-0.204,-0.147,-0.259,-0.286,0.036
'0:00.315',-0.079,-0.378,-0.298,0.229,0.110,-0.338,-0.085,-0.069,-0.075,-0.133,-0.206,-0.148,-0.259,-0.287,0.040
'0:00.316',-0.074,-0.374,-0.299,0.224,0.113,-0.337,-0.085,-0.067,-0.074,-0.131,-0.205,-0.147,-0.256,-0.283,0.041
'0:00.317',-0.080,-0.369,-0.289,0.225,0.105,-0.330,-0.086,-0.070,-0.077,-0.135,-0.207,-0.151,-0.257,-0.278,0.038
'0:00.318',-0.082,-0.374,-0.291,0.228,0.105,-0.333,-0.091,-0.073,-0.082,-0.138,-0.211,-0.154,-0.256,-0.282,0.040
'0:00.319',-0.082,-0.388,-0.305,0.234,0.112,-0.346,-0.086,-0.067,-0.076,-0.134,-0.207,-0.149,-0.256,-0.294,0.041
'0:00.320',-0.082,-0.398,-0.316,0.239,0.117,-0.356,-0.080,-0.060,-0.070,-0.130,-0.204,-0.147,-0.255,-0.301,0.043
'0:00.321',-0.081,-0.400,-0.318,0.240,0.119,-0.358,-0.080,-0.058,-0.068,-0.127,-0.202,-0.146,-0.252,-0.305,0.043
'0:00.322',-0.080,-0.395,-0.315,0.237,0.117,-0.354,-0.078,-0.058,-0.067,-0.127,-0.203,-0.145,-0.252,-0.306,0.040
'0:00.323',-0.068,-0.376,-0.307,0.222,0.120,-0.342,-0.073,-0.053,-0.064,-0.123,-0.201,-0.143,-0.252,-0.302,0.037
'0:00.324',-0.063,-0.366,-0.302,0.214,0.120,-0.334,-0.070,-0.049,-0.058,-0.119,-0.195,-0.138,-0.248,-0.299,0.034
'0:00.325',-0.056,-0.355,-0.299,0.205,0.121,-0.327,-0.068,-0.045,-0.056,-0.117,-0.193,-0.135,-0.246,-0.296,0.031
'0:00.326',-0.044,-0.331,-0.286,0.187,0.121,-0.308,-0.066,-0.044,-0.057,-0.117,-0.194,-0.138,-0.247,-0.285,0.028
'0:00.327',-0.043,-0.329,-0.284,0.185,0.121,-0.306,-0.065,-0.043,-0.054,-0.117,-0.195,-0.139,-0.246,-0.283,0.026
'0:00.328',-0.051,-0.340,-0.287,0.195,0.118,-0.314,-0.064,-0.039,-0.051,-0.115,-0.193,-0.138,-0.246,-0.286,0.024
'0:00.329',-0.059,-0.335,-0.276,0.197,0.108,-0.305,-0.069,-0.044,-0.055,-0.117,-0.195,-0.142,-0.245,-0.279,0.021
'0:00.330',-0.060,-0.326,-0.265,0.193,0.103,-0.295,-0.072,-0.046,-0.056,-0.117,-0.196,-0.142,-0.244,-0.274,0.017
'0:00.331',-0.065,-0.335,-0.271,0.200,0.103,-0.303,-0.071,-0.046,-0.053,-0.117,-0.195,-0.140,-0.242,-0.278,0.016
'0:00.332',-0.066,-0.343,-0.277,0.204,0.106,-0.310,-0.069,-0.043,-0.050,-0.111,-0.187,-0.133,-0.238,-0.281,0.015
'0:00.333',-0.056,-0.332,-0.275,0.193,0.110,-0.303,-0.066,-0.039,-0.045,-0.107,-0.185,-0.131,-0.238,-0.271,0.013
'0:00.334',-0.044,-0.319,-0.274,0.181,0.115,-0.296,-0.063,-0.037,-0.043,-0.107,-0.189,-0.135,-0.241,-0.265,0.014
'0:00.335',-0.042,-0.317,-0.275,0.178,0.117,-0.295,-0.058,-0.031,-0.038,-0.099,-0.183,-0.131,-0.240,-0.265,0.010
'0:00.336',-0.045,-0.323,-0.277,0.183,0.116,-0.299,-0.056,-0.030,-0.034,-0.098,-0.181,-0.131,-0.240,-0.261,0.007
'0:00.337',-0.041,-0.311,-0.270,0.176,0.115,-0.290,-0.053,-0.028,-0.030,-0.094,-0.175,-0.126,-0.240,-0.256,0.004
'0:00.338',-0.036,-0.305,-0.268,0.171,0.116,-0.286,-0.050,-0.024,-0.025,-0.087,-0.169,-0.120,-0.238,-0.255,0.001
'0:00.339',-0.041,-0.318,-0.277,0.179,0.118,-0.297,-0.046,-0.018,-0.019,-0.083,-0.167,-0.118,-0.238,-0.256,0.002
'0:00.340',-0.040,-0.317,-0.276,0.178,0.118,-0.296,-0.047,-0.019,-0.018,-0.081,-0.166,-0.118,-0.238,-0.254,0.001
'0:00.341',-0.037,-0.314,-0.275,0.175,0.119,-0.294,-0.049,-0.021,-0.018,-0.079,-0.163,-0.118,-0.235,-0.254,0.001
'0:00.342',-0.037,-0.321,-0.283,0.179,0.123,-0.301,-0.046,-0.018,-0.015,-0.076,-0.161,-0.117,-0.234,-0.257,0.001
'0:00.343',-0.035,-0.321,-0.286,0.177,0.126,-0.303,-0.048,-0.016,-0.012,-0.074,-0.161,-0.114,-0.231,-0.254,-0.001
'0:00.344',-0.034,-0.321,-0.286,0.177,0.127,-0.304,-0.048,-0.013,-0.009,-0.070,-0.154,-0.108,-0.229,-0.255,-0.004
'0:00.345',-0.033,-0.315,-0.281,0.173,0.124,-0.297,-0.048,-0.012,-0.005,-0.067,-0.152,-0.108,-0.229,-0.253,-0.006
'0:00.346',-0.030,-0.296,-0.266,0.163,0.118,-0.281,-0.053,-0.015,-0.009,-0.069,-0.156,-0.110,-0.227,-0.241,-0.009
'0:00.347',-0.030,-0.299,-0.268,0.165,0.119,-0.283,-0.053,-0.017,-0.011,-0.070,-0.159,-0.114,-0.227,-0.245,-0.005
'0:00.348',-0.032,-0.303,-0.271,0.168,0.119,-0.287,-0.049,-0.013,-0.007,-0.068,-0.157,-0.113,-0.226,-0.254,-0.003
'0:00.349',-0.035,-0.306,-0.271,0.171,0.118,-0.288,-0.054,-0.015,-0.011,-0.073,-0.159,-0.116,-0.224,-0.257,-0.001
'0:00.350',-0.035,-0.312,-0.277,0.173,0.121,-0.294,-0.059,-0.017,-0.011,-0.073,-0.158,-0.113,-0.217,-0.258,0.000
'0:00.351',-0.025,-0.298,-0.273,0.162,0.124,-0.286,-0.063,-0.013,-0.006,-0.068,-0.153,-0.105,-0.214,-0.247,0.004
'0:00.352',-0.009,-0.294,-0.285,0.151,0.139,-0.289,-0.064,-0.010,-0.002,-0.064,-0.148,-0.102,-0.212,-0.242,0.009
'0:00.353',-0.005,-0.296,-0.290,0.150,0.143,-0.293,-0.065,-0.007,0.003,-0.059,-0.143,-0.097,-0.208,-0.241,0.012
'0:00.354',-0.011,-0.300,-0.288,0.155,0.139,-0.294,-0.070,-0.009,0.001,-0.059,-0.141,-0.098,-0.208,-0.241,0.015
'0:00.355',0.001,-0.289,-0.289,0.144,0.145,-0.289,-0.072,-0.009,0.005,-0.056,-0.140,-0.097,-0.208,-0.234,0.018
'0:00.356',0.011,-0.273,-0.282,0.131,0.147,-0.278,-0.073,-0.005,0.011,-0.052,-0.140,-0.093,-0.205,-0.225,0.021
'0:00.357',0.022,-0.260,-0.282,0.118,0.152,-0.271,-0.075,-0.002,0.015,-0.048,-0.133,-0.086,-0.200,-0.225,0.022
'0:00.358',0.018,-0.268,-0.286,0.124,0.152,-0.277,-0.078,-0.003,0.015,-0.047,-0.132,-0.085,-0.196,-0.221,0.024
'0:00.359',0.007,-0.292,-0.299,0.142,0.153,-0.296,-0.079,-0.002,0.016,-0.045,-0.131,-0.083,-0.193,-0.226,0.026
'0:00.360',0.015,-0.284,-0.298,0.135,0.157,-0.291,-0.083,-0.001,0.017,-0.044,-0.132,-0.085,-0.192,-0.229,0.029
'0:00.361',0.018,-0.277,-0.294,0.129,0.157,-0.285,-0.088,-0.002,0.018,-0.043,-0.130,-0.083,-0.189,-0.223,0.032
'0:00.362',0.020,-0.280,-0.299,0.130,0.160,-0.289,-0.092,-0.002,0.021,-0.038,-0.122,-0.073,-0.185,-0.223,0.035
'0:00.363',0.026,-0.273,-0.298,0.123,0.162,-0.285,-0.098,-0.003,0.021,-0.035,-0.117,-0.068,-0.182,-0.217,0.035
'0:00.364',0.033,-0.260,-0.291,0.113,0.163,-0.276,-0.104,-0.004,0.025,-0.029,-0.109,-0.061,-0.178,-0.205,0.030
'0:00.365',0.035,-0.250,-0.285,0.107,0.161,-0.268,-0.117,-0.015,0.021,-0.029,-0.107,-0.059,-0.176,-0.198,0.032
'0:00.366',0.035,-0.242,-0.278,0.103,0.157,-0.260,-0.129,-0.026,0.015,-0.032,-0.107,-0.057,-0.175,-0.189,0.034
'0:00.367',0.034,-0.238,-0.272,0.102,0.153,-0.255,-0.133,-0.027,0.015,-0.033,-0.107,-0.060,-0.177,-0.183,0.036
'0:00.368',0.036,-0.238,-0.275,0.101,0.156,-0.257,-0.138,-0.030,0.012,-0.034,-0.111,-0.060,-0.173,-0.183,0.041
'0:00.369',0.038,-0.237,-0.275,0.100,0.157,-0.257,-0.140,-0.035,0.009,-0.036,-0.113,-0.059,-0.171,-0.186,0.042
'0:00.370',0.035,-0.242,-0.278,0.103,0.157,-0.260,-0.143,-0.040,0.004,-0.041,-0.112,-0.059,-0.171,-0.193,0.041
'0:00.371',0.029,-0.249,-0.279,0.110,0.154,-0.264,-0.144,-0.045,-0.001,-0.046,-0.114,-0.060,-0.172,-0.195,0.040
'0:00.372',0.021,-0.257,-0.277,0.117,0.149,-0.267,-0.145,-0.053,-0.007,-0.052,-0.119,-0.065,-0.175,-0.193,0.042
'0:00.373',0.019,-0.259,-0.278,0.119,0.149,-0.269,-0.147,-0.059,-0.014,-0.056,-0.121,-0.067,-0.175,-0.193,0.044
'0:00.374',0.025,-0.266,-0.291,0.120,0.159,-0.279,-0.149,-0.064,-0.021,-0.062,-0.124,-0.068,-0.175,-0.201,0.050
'0:00.375',0.025,-0.279,-0.302,0.127,0.164,-0.290,-0.150,-0.067,-0.024,-0.066,-0.125,-0.069,-0.176,-0.206,0.053
'0:00.376',0.021,-0.273,-0.292,0.126,0.157,-0.283,-0.150,-0.072,-0.027,-0.071,-0.132,-0.076,-0.181,-0.205,0.051
'0:00.377',0.018,-0.263,-0.280,0.122,0.149,-0.271,-0.147,-0.078,-0.032,-0.076,-0.135,-0.080,-0.182,-0.199,0.046
'0:00.378',0.015,-0.272,-0.287,0.128,0.151,-0.280,-0.143,-0.075,-0.030,-0.074,-0.134,-0.078,-0.182,-0.210,0.043
'0:00.379',0.018,-0.290,-0.307,0.136,0.163,-0.298,-0.137,-0.068,-0.029,-0.072,-0.132,-0.075,-0.183,-0.228,0.046
'0:00.380',0.011,-0.307,-0.318,0.147,0.165,-0.312,-0.133,-0.066,-0.029,-0.072,-0.131,-0.074,-0.186,-0.237,0.049
'0:00.381',0.006,-0.312,-0.319,0.152,0.163,-0.316,-0.134,-0.071,-0.035,-0.076,-0.133,-0.078,-0.192,-0.237,0.050
'0:00.382',0.004,-0.314,-0.317,0.155,0.161,-0.316,-0.133,-0.073,-0.037,-0.080,-0.134,-0.080,-0.194,-0.228,0.049
'0:00.383',0.002,-0.315,-0.317,0.156,0.160,-0.316,-0.135,-0.077,-0.043,-0.085,-0.140,-0.083,-0.197,-0.234,0.048
'0:00.384',0.004,-0.308,-0.312,0.152,0.158,-0.310,-0.134,-0.080,-0.048,-0.086,-0.140,-0.082,-0.198,-0.233,0.045
'0:00.385',-0.002,-0.313,-0.310,0.157,0.154,-0.311,-0.135,-0.084,-0.050,-0.088,-0.140,-0.082,-0.198,-0.234,0.045
'0:00.386',-0.007,-0.315,-0.307,0.161,0.150,-0.311,-0.135,-0.088,-0.052,-0.092,-0.145,-0.086,-0.201,-0.234,0.043
'0:00.387',-0.009,-0.312,-0.302,0.161,0.147,-0.307,-0.131,-0.085,-0.054,-0.093,-0.148,-0.088,-0.204,-0.227,0.042
'0:00.388',-0.007,-0.311,-0.303,0.159,0.148,-0.307,-0.128,-0.083,-0.053,-0.095,-0.149,-0.089,-0.207,-0.230,0.043
'0:00.389',-0.005,-0.302,-0.297,0.154,0.146,-0.300,-0.126,-0.082,-0.053,-0.095,-0.150,-0.088,-0.209,-0.227,0.040
'0:00.390',-0.013,-0.303,-0.290,0.159,0.139,-0.297,-0.127,-0.087,-0.059,-0.099,-0.152,-0.089,-0.208,-0.224,0.037
'0:00.391',-0.020,-0.310,-0.290,0.165,0.136,-0.300,-0.131,-0.089,-0.060,-0.100,-0.156,-0.092,-0.210,-0.223,0.037
'0:00.392',-0.014,-0.312,-0.297,0.163,0.142,-0.305,-0.128,-0.085,-0.057,-0.099,-0.156,-0.091,-0.213,-0.228,0.038
'0:00.393',-0.009,-0.315,-0.305,0.162,0.148,-0.310,-0.122,-0.083,-0.057,-0.099,-0.155,-0.092,-0.214,-0.241,0.038
'0:00.394',-0.013,-0.327,-0.314,0.170,0.150,-0.320,-0.121,-0.083,-0.056,-0.103,-0.163,-0.098,-0.215,-0.246,0.043
'0:00.395',-0.019,-0.342,-0.322,0.180,0.151,-0.332,-0.120,-0.083,-0.059,-0.108,-0.171,-0.105,-0.218,-0.258,0.046
'0:00.396',-0.025,-0.355,-0.330,0.190,0.153,-0.343,-0.122,-0.085,-0.064,-0.112,-0.174,-0.109,-0.217,-0.264,0.046
'0:00.397',-0.025,-0.356,-0.331,0.191,0.153,-0.344,-0.123,-0.084,-0.063,-0.114,-0.176,-0.109,-0.215,-0.264,0.045
'0:00.398',-0.024,-0.349,-0.326,0.186,0.151,-0.338,-0.123,-0.084,-0.064,-0.115,-0.176,-0.111,-0.217,-0.263,0.041
'0:00.399',-0.019,-0.350,-0.330,0.184,0.155,-0.340,-0.119,-0.083,-0.064,-0.116,-0.179,-0.114,-0.220,-0.264,0.043
'0:00.400',-0.019,-0.350,-0.331,0.184,0.155,-0.340,-0.113,-0.079,-0.062,-0.116,-0.180,-0.116,-0.224,-0.268,0.044
'0:00.401',-0.028,-0.360,-0.333,0.194,0.152,-0.346,-0.108,-0.077,-0.064,-0.116,-0.178,-0.117,-0.227,-0.276,0.044
'0:00.402',-0.029,-0.365,-0.336,0.197,0.153,-0.351,-0.102,-0.075,-0.061,-0.114,-0.177,-0.115,-0.231,-0.288,0.045
'0:00.403',-0.034,-0.360,-0.327,0.197,0.147,-0.344,-0.093,-0.071,-0.060,-0.112,-0.176,-0.115,-0.237,-0.289,0.043
'0:00.404',-0.046,-0.356,-0.310,0.201,0.133,-0.333,-0.095,-0.077,-0.067,-0.117,-0.178,-0.118,-0.240,-0.280,0.038
'0:00.405',-0.049,-0.355,-0.306,0.202,0.129,-0.331,-0.094,-0.081,-0.069,-0.117,-0.179,-0.119,-0.242,-0.275,0.036
'0:00.406',-0.054,-0.365,-0.310,0.209,0.128,-0.338,-0.088,-0.077,-0.069,-0.115,-0.177,-0.119,-0.245,-0.275,0.034
'0:00.407',-0.064,-0.370,-0.306,0.216,0.121,-0.338,-0.089,-0.079,-0.068,-0.114,-0.178,-0.120,-0.247,-0.280,0.032
'0:00.408',-0.070,-0.372,-0.302,0.221,0.117,-0.338,-0.086,-0.076,-0.069,-0.115,-0.178,-0.123,-0.250,-0.285,0.031
'0:00.409',-0.074,-0.365,-0.290,0.220,0.108,-0.328,-0.088,-0.076,-0.072,-0.119,-0.183,-0.127,-0.249,-0.281,0.028
'0:00.410',-0.074,-0.353,-0.279,0.213,0.102,-0.316,-0.093,-0.084,-0.076,-0.123,-0.189,-0.133,-0.251,-0.269,0.027
'0:00.411',-0.080,-0.352,-0.272,0.216,0.096,-0.312,-0.091,-0.085,-0.079,-0.126,-0.189,-0.133,-0.254,-0.266,0.026
'0:00.412',-0.081,-0.354,-0.273,0.217,0.096,-0.314,-0.090,-0.083,-0.079,-0.129,-0.192,-0.134,-0.255,-0.266,0.028
'0:00.413',-0.076,-0.359,-0.282,0.217,0.103,-0.321,-0.087,-0.083,-0.081,-0.130,-0.195,-0.138,-0.259,-0.268,0.029
'0:00.414',-0.082,-0.367,-0.285,0.225,0.102,-0.327,-0.087,-0.084,-0.082,-0.134,-0.198,-0.141,-0.264,-0.279,0.034
'0:00.415',-0.088,-0.384,-0.295,0.235,0.104,-0.340,-0.089,-0.084,-0.083,-0.137,-0.203,-0.144,-0.264,-0.286,0.037
'0:00.416',-0.092,-0.396,-0.303,0.243,0.106,-0.349,-0.088,-0.084,-0.085,-0.138,-0.204,-0.146,-0.265,-0.287,0.037
'0:00.417',-0.092,-0.383,-0.290,0.237,0.100,-0.337,-0.089,-0.084,-0.086,-0.140,-0.207,-0.147,-0.265,-0.288,0.036
'0:00.418',-0.095,-0.382,-0.286,0.238,0.096,-0.335,-0.088,-0.083,-0.086,-0.139,-0.207,-0.146,-0.266,-0.289,0.035
'0:00.419',-0.093,-0.390,-0.295,0.241,0.102,-0.343,-0.083,-0.080,-0.084,-0.137,-0.207,-0.147,-0.271,-0.295,0.036
'0:00.420',-0.091,-0.394,-0.302,0.242,0.105,-0.347,-0.081,-0.077,-0.085,-0.138,-0.209,-0.152,-0.275,-0.305,0.040
'0:00.421',-0.100,-0.403,-0.302,0.251,0.102,-0.352,-0.081,-0.080,-0.087,-0.141,-0.211,-0.157,-0.277,-0.304,0.040
'0:00.422',-0.102,-0.399,-0.296,0.250,0.098,-0.347,-0.086,-0.085,-0.090,-0.144,-0.212,-0.158,-0.277,-0.300,0.038
'0:00.423',-0.103,-0.398,-0.294,0.251,0.096,-0.346,-0.086,-0.085,-0.092,-0.146,-0.213,-0.158,-0.276,-0.299,0.039
'0:00.424',-0.103,-0.391,-0.287,0.247,0.092,-0.339,-0.089,-0.089,-0.097,-0.151,-0.218,-0.162,-0.276,-0.292,0.037
'0:00.425',-0.102,-0.381,-0.278,0.241,0.088,-0.329,-0.090,-0.091,-0.099,-0.151,-0.220,-0.162,-0.276,-0.287,0.036
'0:00.426',-0.101,-0.386,-0.284,0.243,0.092,-0.335,-0.084,-0.086,-0.096,-0.143,-0.210,-0.158,-0.277,-0.291,0.035
'0:00.427',-0.098,-0.394,-0.294,0.245,0.099,-0.344,-0.083,-0.084,-0.093,-0.144,-0.212,-0.156,-0.276,-0.300,0.035
'0:00.428',-0.100,-0.396,-0.295,0.247,0.098,-0.345,-0.082,-0.085,-0.093,-0.149,-0.217,-0.158,-0.277,-0.298,0.039
'0:00.429',-0.097,-0.384,-0.286,0.240,0.095,-0.335,-0.086,-0.087,-0.095,-0.150,-0.216,-0.158,-0.277,-0.287,0.036
'0:00.430',-0.099,-0.381,-0.281,0.240,0.091,-0.332,-0.085,-0.088,-0.096,-0.147,-0.216,-0.157,-0.276,-0.289,0.034
'0:00.431',-0.101,-0.382,-0.281,0.241,0.090,-0.331,-0.086,-0.090,-0.097,-0.147,-0.214,-0.158,-0.275,-0.289,0.034
'0:00.432',-0.097,-0.373,-0.276,0.235,0.089,-0.325,-0.089,-0.091,-0.100,-0.150,-0.215,-0.160,-0.276,-0.284,0.034
'0:00.433',-0.098,-0.383,-0.283,0.240,0.093,-0.333,-0.085,-0.087,-0.097,-0.150,-0.216,-0.160,-0.278,-0.293,0.036
'0:00.434',-0.099,-0.386,-0.287,0.242,0.095,-0.337,-0.086,-0.089,-0.098,-0.152,-0.218,-0.164,-0.280,-0.299,0.040
'0:00.435',-0.094,-0.376,-0.281,0.235,0.094,-0.329,-0.085,-0.088,-0.099,-0.154,-0.222,-0.168,-0.281,-0.293,0.040
'0:00.436',-0.095,-0.382,-0.286,0.238,0.096,-0.334,-0.083,-0.086,-0.097,-0.153,-0.222,-0.166,-0.281,-0.292,0.041
'0:00.437',-0.102,-0.395,-0.291,0.248,0.095,-0.343,-0.083,-0.089,-0.098,-0.153,-0.223,-0.166,-0.281,-0.294,0.041
'0:00.438',-0.105,-0.390,-0.283,0.247,0.089,-0.337,-0.084,-0.089,-0.100,-0.153,-0.224,-0.168,-0.281,-0.292,0.038
'0:00.439',-0.103,-0.387,-0.283,0.245,0.090,-0.335,-0.083,-0.089,-0.099,-0.153,-0.224,-0.167,-0.281,-0.298,0.040
'0:00.440',-0.100,-0.395,-0.294,0.247,0.098,-0.344,-0.079,-0.082,-0.093,-0.149,-0.218,-0.162,-0.280,-0.305,0.041
'0:00.441',-0.097,-0.402,-0.304,0.249,0.104,-0.353,-0.075,-0.077,-0.088,-0.143,-0.213,-0.157,-0.279,-0.305,0.041
'0:00.442',-0.099,-0.408,-0.309,0.253,0.105,-0.358,-0.073,-0.077,-0.086,-0.143,-0.213,-0.155,-0.280,-0.314,0.043
'0:00.443',-0.102,-0.403,-0.300,0.252,0.100,-0.351,-0.079,-0.082,-0.092,-0.147,-0.215,-0.158,-0.281,-0.311,0.041
'0:00.444',-0.102,-0.393,-0.290,0.246,0.095,-0.342,-0.081,-0.086,-0.095,-0.150,-0.217,-0.159,-0.280,-0.300,0.037
'0:00.445',-0.102,-0.388,-0.285,0.244,0.092,-0.337,-0.082,-0.085,-0.096,-0.149,-0.217,-0.160,-0.279,-0.295,0.035
'0:00.446',-0.102,-0.389,-0.286,0.245,0.092,-0.338,-0.081,-0.084,-0.097,-0.147,-0.216,-0.158,-0.279,-0.295,0.034
'0:00.447',-0.101,-0.389,-0.287,0.244,0.093,-0.338,-0.079,-0.083,-0.096,-0.147,-0.216,-0.158,-0.279,-0.295,0.035
'0:00.448',-0.102,-0.389,-0.285,0.245,0.092,-0.337,-0.080,-0.086,-0.096,-0.150,-0.218,-0.160,-0.281,-0.300,0.037
'0:00.449',-0.103,-0.389,-0.285,0.246,0.091,-0.337,-0.077,-0.081,-0.093,-0.149,-0.218,-0.159,-0.281,-0.304,0.034
'0:00.450',-0.107,-0.390,-0.281,0.248,0.087,-0.335,-0.076,-0.076,-0.092,-0.149,-0.221,-0.163,-0.281,-0.299,0.031
'0:00.451',-0.112,-0.395,-0.282,0.253,0.085,-0.338,-0.072,-0.071,-0.089,-0.152,-0.230,-0.169,-0.283,-0.300,0.030
'0:00.452',-0.110,-0.401,-0.291,0.256,0.091,-0.346,-0.064,-0.054,-0.082,-0.152,-0.236,-0.174,-0.286,-0.306,0.029
'0:00.453',-0.107,-0.411,-0.303,0.259,0.099,-0.357,-0.053,-0.032,-0.070,-0.154,-0.245,-0.184,-0.291,-0.317,0.032
'0:00.454',-0.106,-0.425,-0.319,0.266,0.106,-0.372,-0.040,-0.015,-0.059,-0.156,-0.255,-0.193,-0.294,-0.337,0.034
'0:00.455',-0.099,-0.431,-0.332,0.265,0.117,-0.382,-0.032,-0.004,-0.053,-0.155,-0.261,-0.199,-0.296,-0.350,0.036
'0:00.456',-0.093,-0.440,-0.346,0.266,0.127,-0.393,-0.023,0.010,-0.043,-0.155,-0.267,-0.205,-0.298,-0.362,0.038
'0:00.457',-0.087,-0.448,-0.359,0.268,0.137,-0.404,-0.011,0.035,-0.024,-0.149,-0.273,-0.210,-0.300,-0.371,0.035
'0:00.458',-0.086,-0.461,-0.373,0.274,0.144,-0.417,-0.002,0.058,-0.007,-0.149,-0.283,-0.220,-0.301,-0.387,0.036
'0:00.459',-0.093,-0.494,-0.401,0.293,0.154,-0.448,0.003,0.072,0.002,-0.157,-0.303,-0.237,-0.306,-0.417,0.042
'0:00.460',-0.101,-0.524,-0.423,0.312,0.161,-0.473,0.018,0.100,0.020,-0.156,-0.320,-0.254,-0.314,-0.438,0.044
'0:00.461',-0.095,-0.542,-0.447,0.319,0.176,-0.494,0.040,0.134,0.043,-0.155,-0.336,-0.270,-0.319,-0.460,0.045
'0:00.462',-0.091,-0.569,-0.477,0.330,0.194,-0.523,0.057,0.163,0.071,-0.145,-0.348,-0.279,-0.321,-0.490,0.044
'0:00.463',-0.090,-0.590,-0.499,0.340,0.204,-0.544,0.070,0.193,0.105,-0.125,-0.347,-0.282,-0.317,-0.512,0.036
'0:00.464',-0.083,-0.599,-0.516,0.341,0.217,-0.557,0.075,0.212,0.132,-0.108,-0.347,-0.286,-0.310,-0.529,0.034
'0:00.465',-0.079,-0.606,-0.526,0.342,0.224,-0.566,0.081,0.230,0.155,-0.093,-0.349,-0.291,-0.306,-0.535,0.033
'0:00.466',-0.065,-0.611,-0.546,0.338,0.241,-0.579,0.094,0.255,0.174,-0.083,-0.350,-0.293,-0.303,-0.549,0.032
'0:00.467',-0.057,-0.623,-0.566,0.340,0.255,-0.595,0.093,0.244,0.172,-0.076,-0.351,-0.295,-0.302,-0.565,0.038
'0:00.468',-0.051,-0.637,-0.586,0.344,0.268,-0.612,0.087,0.231,0.180,-0.059,-0.349,-0.297,-0.298,-0.577,0.040
'0:00.469',-0.033,-0.640,-0.607,0.336,0.287,-0.624,0.088,0.245,0.216,-0.025,-0.334,-0.290,-0.282,-0.579,0.034
'0:00.470',-0.018,-0.625,-0.606,0.322,0.294,-0.615,0.080,0.237,0.240,0.013,-0.306,-0.272,-0.261,-0.563,0.021
'0:00.471',0.000,-0.612,-0.612,0.306,0.306,-0.612,0.060,0.209,0.264,0.073,-0.252,-0.234,-0.228,-0.551,0.004
'0:00.472',0.013,-0.595,-0.607,0.290,0.310,-0.601,0.030,0.166,0.274,0.133,-0.181,-0.184,-0.188,-0.526,-0.011
'0:00.473',0.029,-0.557,-0.586,0.264,0.308,-0.572,0.003,0.121,0.275,0.184,-0.117,-0.138,-0.150,-0.487,-0.024
'0:00.474',0.056,-0.525,-0.581,0.234,0.319,-0.553,-0.028,0.075,0.282,0.241,-0.059,-0.099,-0.117,-0.460,-0.035
'0:00.475',0.084,-0.491,-0.575,0.203,0.330,-0.533,-0.065,0.017,0.273,0.282,-0.002,-0.056,-0.080,-0.433,-0.043
'0:00.476',0.120,-0.451,-0.571,0.165,0.346,-0.510,-0.117,-0.055,0.239,0.317,0.070,0.004,-0.031,-0.393,-0.043
'0:00.477',0.164,-0.400,-0.563,0.118,0.363,-0.481,-0.163,-0.118,0.213,0.357,0.148,0.071,0.026,-0.347,-0.048
'0:00.478',0.215,-0.336,-0.550,0.060,0.383,-0.443,-0.211,-0.181,0.207,0.425,0.251,0.151,0.092,-0.291,-0.064
'0:00.479',0.267,-0.284,-0.550,0.009,0.409,-0.417,-0.274,-0.256,0.192,0.493,0.359,0.236,0.165,-0.248,-0.073
'0:00.480',0.316,-0.245,-0.560,-0.035,0.439,-0.403,-0.327,-0.312,0.190,0.561,0.456,0.309,0.233,-0.222,-0.080
'0:00.481',0.374,-0.194,-0.567,-0.090,0.470,-0.381,-0.402,-0.383,0.203,0.649,0.555,0.387,0.309,-0.180,-0.088
'0:00.482',0.429,-0.137,-0.566,-0.146,0.497,-0.351,-0.471,-0.455,0.203,0.721,0.647,0.461,0.381,-0.139,-0.091
'0:00.483',0.469,-0.085,-0.553,-0.193,0.511,-0.319,-0.523,-0.519,0.183,0.763,0.719,0.518,0.428,-0.099,-0.093
'0:00.484',0.507,-0.034,-0.540,-0.237,0.524,-0.287,-0.579,-0.589,0.163,0.810,0.789,0.579,0.480,-0.057,-0.098
'0:00.485',0.540,0.008,-0.531,-0.275,0.536,-0.262,-0.634,-0.648,0.146,0.854,0.855,0.633,0.530,-0.018,-0.099
'0:00.486',0.576,0.048,-0.528,-0.312,0.552,-0.240,-0.699,-0.719,0.120,0.897,0.931,0.696,0.589,0.017,-0.096
'0:00.487',0.613,0.077,-0.535,-0.345,0.574,-0.229,-0.740,-0.772,0.096,0.938,1.004,0.750,0.639,0.036,-0.086
'0:00.488',0.623,0.099,-0.524,-0.360,0.574,-0.213,-0.762,-0.812,0.070,0.960,1.048,0.783,0.664,0.056,-0.080
'0:00.489',0.644,0.144,-0.499,-0.394,0.572,-0.177,-0.811,-0.880,0.037,0.987,1.111,0.841,0.708,0.096,-0.075
'0:00.490',0.662,0.196,-0.466,-0.429,0.565,-0.135,-0.849,-0.930,0.004,1.009,1.173,0.896,0.747,0.131,-0.070
'0:00.491',0.649,0.211,-0.437,-0.431,0.543,-0.113,-0.865,-0.957,-0.029,0.999,1.194,0.915,0.754,0.145,-0.063
'0:00.492',0.622,0.202,-0.419,-0.412,0.521,-0.109,-0.883,-1.000,-0.102,0.921,1.154,0.899,0.733,0.150,-0.032
'0:00.493',0.594,0.197,-0.396,-0.396,0.495,-0.100,-0.900,-1.061,-0.200,0.804,1.087,0.877,0.695,0.154,0.011
'0:00.494',0.552,0.201,-0.350,-0.377,0.452,-0.075,-0.923,-1.143,-0.333,0.648,1.008,0.851,0.641,0.173,0.057
'0:00.495',0.478,0.202,-0.276,-0.340,0.377,-0.037,-0.940,-1.224,-0.521,0.423,0.874,0.791,0.555,0.194,0.117
'0:00.496',0.401,0.176,-0.223,-0.289,0.312,-0.023,-0.945,-1.288,-0.715,0.175,0.718,0.716,0.456,0.183,0.185
'0:00.497',0.327,0.176,-0.149,-0.252,0.238,0.013,-0.942,-1.339,-0.905,-0.074,0.577,0.645,0.353,0.196,0.239
'0:00.498',0.254,0.200,-0.053,-0.227,0.153,0.073,-0.942,-1.390,-1.091,-0.317,0.448,0.588,0.256,0.242,0.286
'0:00.499',0.182,0.190,0.008,-0.186,0.087,0.099,-0.931,-1.426,-1.263,-0.536,0.315,0.522,0.158,0.258,0.334
'0:00.500',0.133,0.167,0.034,-0.150,0.050,0.100,-0.921,-1.445,-1.386,-0.709,0.188,0.454,0.072,0.251,0.381
'0:00.501',0.117,0.146,0.029,-0.132,0.044,0.087,-0.920,-1.453,-1.456,-0.827,0.087,0.405,0.018,0.232,0.426
'0:00.502',0.093,0.124,0.032,-0.109,0.032,0.078,-0.904,-1.430,-1.488,-0.918,-0.011,0.349,-0.036,0.215,0.461
'0:00.503',0.044,0.078,0.035,-0.061,0.005,0.057,-0.871,-1.391,-1.490,-0.989,-0.114,0.280,-0.100,0.183,0.481
'0:00.504',0.012,0.029,0.018,-0.021,-0.003,0.024,-0.822,-1.326,-1.452,-1.007,-0.185,0.222,-0.143,0.137,0.486
'0:00.505',-0.002,0.003,0.005,-0.001,-0.003,0.004,-0.778,-1.258,-1.387,-0.984,-0.227,0.174,-0.168,0.109,0.473
'0:00.506',-0.024,-0.050,-0.026,0.037,0.001,-0.038,-0.724,-1.183,-1.316,-0.954,-0.270,0.119,-0.201,0.059,0.459
'0:00.507',-0.041,-0.124,-0.083,0.082,0.021,-0.103,-0.658,-1.091,-1.228,-0.914,-0.315,0.055,-0.236,-0.013,0.445
'0:00.508',-0.071,-0.189,-0.117,0.130,0.023,-0.153,-0.600,-1.013,-1.147,-0.873,-0.346,-0.004,-0.275,-0.065,0.426
'0:00.509',-0.098,-0.218,-0.120,0.158,0.012,-0.170,-0.551,-0.954,-1.087,-0.839,-0.369,-0.049,-0.305,-0.085,0.404
'0:00.510',-0.114,-0.225,-0.111,0.169,-0.001,-0.168,-0.511,-0.906,-1.032,-0.800,-0.372,-0.070,-0.318,-0.090,0.377
'0:00.511',-0.131,-0.238,-0.107,0.184,-0.012,-0.172,-0.468,-0.847,-0.965,-0.751,-0.364,-0.084,-0.327,-0.097,0.345
'0:00.512',-0.133,-0.237,-0.103,0.185,-0.015,-0.171,-0.418,-0.767,-0.883,-0.695,-0.358,-0.101,-0.333,-0.105,0.309
'0:00.513',-0.141,-0.243,-0.102,0.192,-0.019,-0.173,-0.372,-0.699,-0.810,-0.641,-0.351,-0.116,-0.339,-0.114,0.276
'0:00.514',-0.147,-0.263,-0.115,0.205,-0.017,-0.189,-0.341,-0.643,-0.753,-0.601,-0.345,-0.125,-0.338,-0.127,0.257
'0:00.515',-0.144,-0.271,-0.127,0.207,-0.009,-0.199,-0.302,-0.579,-0.695,-0.564,-0.340,-0.133,-0.342,-0.146,0.240
'0:00.516',-0.148,-0.284,-0.136,0.216,-0.006,-0.209,-0.261,-0.513,-0.633,-0.525,-0.340,-0.150,-0.349,-0.168,0.216
'0:00.517',-0.156,-0.299,-0.142,0.228,-0.006,-0.221,-0.231,-0.453,-0.576,-0.487,-0.334,-0.161,-0.350,-0.179,0.192
'0:00.518',-0.155,-0.316,-0.161,0.235,0.003,-0.238,-0.199,-0.388,-0.512,-0.443,-0.321,-0.162,-0.343,-0.194,0.167
'0:00.519',-0.143,-0.335,-0.192,0.238,0.025,-0.264,-0.168,-0.323,-0.446,-0.399,-0.307,-0.161,-0.331,-0.221,0.146
'0:00.520',-0.134,-0.350,-0.216,0.241,0.042,-0.283,-0.142,-0.268,-0.389,-0.360,-0.293,-0.158,-0.322,-0.237,0.133
'0:00.521',-0.133,-0.365,-0.232,0.249,0.050,-0.298,-0.121,-0.221,-0.340,-0.328,-0.283,-0.162,-0.319,-0.253,0.118
'0:00.522',-0.127,-0.378,-0.251,0.252,0.062,-0.315,-0.106,-0.180,-0.297,-0.299,-0.277,-0.165,-0.315,-0.269,0.107
'0:00.523',-0.118,-0.382,-0.263,0.249,0.073,-0.322,-0.100,-0.150,-0.263,-0.278,-0.272,-0.168,-0.308,-0.277,0.098
'0:00.524',-0.123,-0.385,-0.261,0.254,0.069,-0.323,-0.085,-0.124,-0.233,-0.259,-0.268,-0.172,-0.305,-0.284,0.086
'0:00.525',-0.124,-0.387,-0.262,0.255,0.069,-0.325,-0.074,-0.106,-0.211,-0.244,-0.268,-0.177,-0.304,-0.288,0.077
'0:00.526',-0.127,-0.381,-0.254,0.254,0.064,-0.318,-0.077,-0.099,-0.196,-0.234,-0.267,-0.181,-0.301,-0.284,0.069
'0:00.527',-0.130,-0.380,-0.250,0.255,0.060,-0.315,-0.075,-0.094,-0.183,-0.227,-0.267,-0.184,-0.302,-0.282,0.064
'0:00.528',-0.124,-0.381,-0.256,0.253,0.066,-0.318,-0.072,-0.086,-0.168,-0.217,-0.263,-0.186,-0.303,-0.289,0.060
'0:00.529',-0.128,-0.377,-0.249,0.253,0.060,-0.313,-0.070,-0.079,-0.152,-0.205,-0.257,-0.183,-0.297,-0.289,0.053
'0:00.530',-0.125,-0.374,-0.249,0.249,0.062,-0.312,-0.069,-0.073,-0.139,-0.197,-0.254,-0.182,-0.294,-0.283,0.046
'0:00.531',-0.126,-0.379,-0.253,0.252,0.064,-0.316,-0.072,-0.070,-0.128,-0.188,-0.252,-0.182,-0.291,-0.277,0.042
'0:00.532',-0.134,-0.398,-0.264,0.266,0.066,-0.331,-0.069,-0.064,-0.117,-0.179,-0.247,-0.179,-0.287,-0.283,0.040
'0:00.533',-0.124,-0.399,-0.274,0.262,0.074,-0.336,-0.066,-0.061,-0.108,-0.173,-0.243,-0.176,-0.286,-0.292,0.040
'0:00.534',-0.114,-0.395,-0.281,0.254,0.084,-0.338,-0.063,-0.059,-0.099,-0.166,-0.238,-0.174,-0.285,-0.299,0.040
'0:00.535',-0.101,-0.389,-0.287,0.244,0.093,-0.338,-0.057,-0.046,-0.087,-0.158,-0.235,-0.171,-0.283,-0.301,0.041
'0:00.536',-0.097,-0.379,-0.281,0.237,0.092,-0.330,-0.053,-0.042,-0.084,-0.157,-0.237,-0.175,-0.284,-0.293,0.041
'0:00.537',-0.104,-0.382,-0.278,0.243,0.087,-0.330,-0.051,-0.039,-0.080,-0.156,-0.237,-0.176,-0.283,-0.290,0.039
'0:00.538',-0.105,-0.384,-0.278,0.244,0.086,-0.331,-0.050,-0.037,-0.076,-0.151,-0.236,-0.173,-0.281,-0.289,0.035
'0:00.539',-0.105,-0.385,-0.278,0.245,0.086,-0.331,-0.046,-0.035,-0.072,-0.146,-0.234,-0.173,-0.283,-0.293,0.034
'0:00.540',-0.102,-0.386,-0.282,0.244,0.090,-0.334,-0.041,-0.029,-0.068,-0.148,-0.235,-0.174,-0.286,-0.304,0.035
'0:00.541',-0.103,-0.389,-0.285,0.245,0.091,-0.337,-0.043,-0.030,-0.065,-0.146,-0.236,-0.177,-0.286,-0.309,0.035
'0:00.542',-0.106,-0.386,-0.279,0.245,0.086,-0.332,-0.043,-0.029,-0.065,-0.145,-0.237,-0.177,-0.285,-0.304,0.034
'0:00.543',-0.109,-0.386,-0.276,0.246,0.084,-0.331,-0.043,-0.027,-0.065,-0.147,-0.241,-0.180,-0.286,-0.304,0.033
'0:00.544',-0.110,-0.389,-0.278,0.248,0.085,-0.333,-0.041,-0.026,-0.061,-0.143,-0.240,-0.178,-0.287,-0.309,0.031
'0:00.545',-0.108,-0.379,-0.270,0.243,0.081,-0.325,-0.043,-0.026,-0.061,-0.145,-0.240,-0.178,-0.286,-0.302,0.028
'0:00.546',-0.114,-0.373,-0.260,0.243,0.073,-0.317,-0.049,-0.030,-0.063,-0.145,-0.240,-0.181,-0.286,-0.293,0.025
'0:00.547',-0.116,-0.382,-0.265,0.248,0.074,-0.324,-0.043,-0.024,-0.057,-0.142,-0.240,-0.179,-0.286,-0.302,0.026
'0:00.548',-0.113,-0.384,-0.271,0.247,0.080,-0.327,-0.042,-0.022,-0.055,-0.144,-0.241,-0.181,-0.289,-0.305,0.028
'0:00.549',-0.113,-0.381,-0.268,0.246,0.078,-0.325,-0.042,-0.021,-0.054,-0.142,-0.242,-0.179,-0.287,-0.301,0.026
'0:00.550',-0.114,-0.381,-0.267,0.247,0.076,-0.324,-0.042,-0.021,-0.053,-0.141,-0.241,-0.179,-0.285,-0.295,0.022
'0:00.551',-0.113,-0.376,-0.263,0.244,0.075,-0.319,-0.043,-0.024,-0.052,-0.143,-0.242,-0.180,-0.286,-0.291,0.021
'0:00.552',-0.113,-0.374,-0.261,0.243,0.074,-0.318,-0.043,-0.021,-0.049,-0.140,-0.240,-0.179,-0.284,-0.292,0.021
'0:00.553',-0.113,-0.374,-0.262,0.243,0.075,-0.318,-0.044,-0.022,-0.048,-0.136,-0.237,-0.181,-0.286,-0.294,0.019
'0:00.554',-0.115,-0.389,-0.274,0.252,0.080,-0.332,-0.040,-0.018,-0.044,-0.141,-0.247,-0.183,-0.290,-0.301,0.025
'0:00.555',-0.116,-0.400,-0.283,0.257,0.085,-0.342,-0.036,-0.011,-0.041,-0.140,-0.245,-0.183,-0.291,-0.303,0.026
'0:00.556',-0.107,-0.391,-0.283,0.248,0.088,-0.337,-0.032,-0.007,-0.036,-0.135,-0.240,-0.180,-0.288,-0.301,0.026
'0:00.557',-0.100,-0.382,-0.281,0.240,0.091,-0.332,-0.032,-0.007,-0.035,-0.133,-0.239,-0.179,-0.286,-0.300,0.026
'0:00.558',-0.102,-0.379,-0.276,0.240,0.087,-0.327,-0.035,-0.013,-0.037,-0.134,-0.239,-0.181,-0.285,-0.297,0.025
'0:00.559',-0.115,-0.393,-0.277,0.254,0.081,-0.335,-0.039,-0.013,-0.037,-0.137,-0.245,-0.186,-0.288,-0.294,0.025
'0:00.560',-0.118,-0.400,-0.281,0.259,0.082,-0.341,-0.039,-0.011,-0.037,-0.137,-0.246,-0.187,-0.289,-0.295,0.025
'0:00.561',-0.105,-0.391,-0.285,0.248,0.090,-0.338,-0.035,-0.007,-0.034,-0.134,-0.244,-0.184,-0.287,-0.297,0.028
'0:00.562',-0.105,-0.394,-0.288,0.249,0.091,-0.341,-0.033,-0.003,-0.029,-0.128,-0.237,-0.180,-0.286,-0.306,0.025
'0:00.563',-0.110,-0.399,-0.288,0.254,0.089,-0.344,-0.032,-0.003,-0.028,-0.127,-0.235,-0.179,-0.285,-0.310,0.023
'0:00.564',-0.112,-0.396,-0.284,0.254,0.086,-0.340,-0.035,-0.006,-0.030,-0.130,-0.239,-0.182,-0.287,-0.307,0.021
'0:00.565',-0.118,-0.399,-0.281,0.258,0.082,-0.340,-0.038,-0.008,-0.031,-0.129,-0.239,-0.180,-0.286,-0.317,0.018
'0:00.566',-0.118,-0.397,-0.278,0.257,0.080,-0.337,-0.036,-0.006,-0.029,-0.127,-0.238,-0.179,-0.284,-0.314,0.018
'0:00.567',-0.117,-0.394,-0.276,0.255,0.080,-0.335,-0.036,-0.005,-0.030,-0.129,-0.242,-0.183,-0.286,-0.307,0.017
'0:00.568',-0.117,-0.399,-0.281,0.258,0.083,-0.340,-0.037,-0.005,-0.029,-0.129,-0.240,-0.184,-0.286,-0.305,0.018
'0:00.569',-0.118,-0.397,-0.278,0.257,0.081,-0.338,-0.042,-0.008,-0.030,-0.128,-0.241,-0.184,-0.284,-0.296,0.016
'0:00.570',-0.122,-0.394,-0.271,0.258,0.074,-0.332,-0.044,-0.009,-0.029,-0.128,-0.245,-0.186,-0.284,-0.295,0.013
'0:00.571',-0.120,-0.389,-0.268,0.255,0.074,-0.328,-0.041,-0.009,-0.028,-0.126,-0.242,-0.186,-0.283,-0.295,0.013
'0:00.572',-0.116,-0.382,-0.266,0.248,0.075,-0.324,-0.041,-0.009,-0.031,-0.130,-0.244,-0.185,-0.282,-0.294,0.014
'0:00.573',-0.106,-0.377,-0.270,0.241,0.082,-0.324,-0.042,-0.004,-0.025,-0.127,-0.240,-0.182,-0.281,-0.302,0.017
'0:00.574',-0.104,-0.381,-0.277,0.242,0.086,-0.329,-0.039,-0.001,-0.022,-0.123,-0.239,-0.181,-0.282,-0.306,0.019
'0:00.575',-0.099,-0.387,-0.287,0.242,0.095,-0.337,-0.028,0.005,-0.016,-0.119,-0.236,-0.178,-0.282,-0.309,0.021
'0:00.576',-0.092,-0.392,-0.299,0.241,0.103,-0.345,-0.019,0.014,-0.006,-0.110,-0.229,-0.172,-0.281,-0.312,0.021
'0:00.577',-0.095,-0.399,-0.303,0.246,0.104,-0.350,-0.019,0.015,-0.004,-0.108,-0.228,-0.171,-0.281,-0.314,0.019
'0:00.578',-0.098,-0.395,-0.296,0.246,0.100,-0.345,-0.022,0.013,-0.004,-0.108,-0.227,-0.172,-0.282,-0.317,0.018
'0:00.579',-0.100,-0.382,-0.281,0.240,0.091,-0.332,-0.028,0.011,-0.009,-0.115,-0.233,-0.178,-0.282,-0.307,0.019
'0:00.580',-0.097,-0.373,-0.277,0.235,0.090,-0.325,-0.029,0.006,-0.013,-0.120,-0.237,-0.182,-0.281,-0.299,0.021
'0:00.581',-0.093,-0.376,-0.281,0.234,0.095,-0.329,-0.030,0.007,-0.011,-0.119,-0.236,-0.182,-0.280,-0.302,0.022
'0:00.582',-0.093,-0.376,-0.282,0.234,0.095,-0.330,-0.026,0.011,-0.005,-0.114,-0.234,-0.179,-0.281,-0.311,0.022
'0:00.583',-0.099,-0.374,-0.275,0.236,0.088,-0.325,-0.029,0.011,-0.007,-0.114,-0.234,-0.178,-0.279,-0.303,0.021
'0:00.584',-0.108,-0.370,-0.262,0.239,0.077,-0.316,-0.036,0.004,-0.012,-0.119,-0.238,-0.183,-0.279,-0.292,0.017
'0:00.585',-0.113,-0.370,-0.258,0.241,0.073,-0.314,-0.038,0.001,-0.015,-0.121,-0.239,-0.185,-0.280,-0.297,0.015
'0:00.586',-0.109,-0.373,-0.265,0.241,0.078,-0.320,-0.034,0.006,-0.011,-0.117,-0.235,-0.180,-0.278,-0.295,0.015
'0:00.587',-0.103,-0.382,-0.278,0.243,0.087,-0.330,-0.029,0.013,-0.004,-0.110,-0.230,-0.174,-0.277,-0.299,0.015
'0:00.588',-0.095,-0.379,-0.283,0.236,0.095,-0.332,-0.026,0.013,-0.001,-0.107,-0.225,-0.170,-0.273,-0.305,0.018
'0:00.589',-0.095,-0.369,-0.274,0.232,0.089,-0.322,-0.031,0.011,-0.004,-0.110,-0.228,-0.173,-0.274,-0.297,0.015
'0:00.590',-0.108,-0.370,-0.262,0.239,0.077,-0.316,-0.034,0.007,-0.007,-0.115,-0.235,-0.179,-0.274,-0.287,0.013
'0:00.591',-0.104,-0.365,-0.260,0.234,0.078,-0.312,-0.035,0.004,-0.007,-0.115,-0.232,-0.177,-0.271,-0.282,0.011
'0:00.592',-0.103,-0.366,-0.262,0.234,0.080,-0.314,-0.043,0.006,-0.006,-0.114,-0.231,-0.176,-0.270,-0.288,0.012
'0:00.593',-0.100,-0.368,-0.268,0.234,0.084,-0.318,-0.034,0.011,-0.001,-0.110,-0.229,-0.174,-0.269,-0.290,0.013
'0:00.594',-0.101,-0.377,-0.275,0.238,0.087,-0.326,-0.031,0.011,-0.001,-0.111,-0.230,-0.174,-0.270,-0.295,0.015
'0:00.595',-0.103,-0.386,-0.282,0.244,0.089,-0.334,-0.032,0.012,-0.001,-0.111,-0.233,-0.180,-0.275,-0.301,0.019
'0:00.596',-0.096,-0.388,-0.291,0.241,0.098,-0.340,-0.025,0.022,0.009,-0.102,-0.225,-0.172,-0.273,-0.306,0.018
'0:00.597',-0.100,-0.393,-0.292,0.246,0.097,-0.343,-0.024,0.024,0.011,-0.100,-0.224,-0.168,-0.269,-0.309,0.017
'0:00.598',-0.098,-0.387,-0.288,0.242,0.095,-0.337,-0.029,0.018,0.005,-0.105,-0.230,-0.177,-0.272,-0.302,0.016
'0:00.599',-0.098,-0.382,-0.283,0.240,0.093,-0.333,-0.030,0.018,0.007,-0.102,-0.229,-0.175,-0.270,-0.298,0.015
'0:00.600',-0.095,-0.386,-0.290,0.239,0.098,-0.338,-0.021,0.026,0.017,-0.094,-0.221,-0.171,-0.269,-0.307,0.016
'0:00.601',-0.085,-0.385,-0.299,0.234,0.107,-0.342,-0.021,0.024,0.015,-0.099,-0.224,-0.176,-0.272,-0.317,0.018
'0:00.602',-0.088,-0.386,-0.297,0.236,0.105,-0.342,-0.024,0.026,0.015,-0.100,-0.228,-0.177,-0.272,-0.314,0.018
'0:00.603',-0.086,-0.379,-0.293,0.232,0.104,-0.336,-0.019,0.034,0.022,-0.092,-0.222,-0.171,-0.271,-0.315,0.017
'0:00.604',-0.085,-0.368,-0.283,0.226,0.100,-0.326,-0.021,0.027,0.019,-0.095,-0.222,-0.171,-0.272,-0.311,0.013
'0:00.605',-0.087,-0.367,-0.279,0.227,0.096,-0.323,-0.025,0.024,0.017,-0.097,-0.226,-0.174,-0.271,-0.302,0.011
'0:00.606',-0.090,-0.372,-0.281,0.231,0.096,-0.327,-0.028,0.026,0.018,-0.094,-0.223,-0.172,-0.267,-0.300,0.010
'0:00.607',-0.093,-0.372,-0.279,0.232,0.093,-0.326,-0.025,0.029,0.021,-0.091,-0.218,-0.168,-0.265,-0.299,0.009
'0:00.608',-0.092,-0.376,-0.283,0.234,0.096,-0.330,-0.025,0.029,0.022,-0.093,-0.222,-0.171,-0.267,-0.303,0.015
'0:00.609',-0.090,-0.376,-0.285,0.233,0.098,-0.331,-0.026,0.030,0.021,-0.095,-0.224,-0.172,-0.269,-0.305,0.015
'0:00.610',-0.087,-0.367,-0.280,0.228,0.097,-0.324,-0.025,0.030,0.023,-0.091,-0.222,-0.170,-0.265,-0.299,0.011
'0:00.611',-0.083,-0.364,-0.280,0.223,0.099,-0.322,-0.029,0.028,0.022,-0.092,-0.221,-0.169,-0.264,-0.297,0.011
'0:00.612',-0.079,-0.361,-0.282,0.220,0.102,-0.322,-0.028,0.030,0.024,-0.092,-0.221,-0.169,-0.265,-0.296,0.010
'0:00.613',-0.079,-0.360,-0.281,0.220,0.102,-0.321,-0.025,0.033,0.029,-0.089,-0.223,-0.170,-0.265,-0.292,0.011
'0:00.614',-0.083,-0.364,-0.281,0.223,0.100,-0.323,-0.025,0.034,0.029,-0.090,-0.224,-0.171,-0.267,-0.292,0.013
'0:00.615',-0.086,-0.377,-0.290,0.232,0.102,-0.334,-0.025,0.034,0.029,-0.090,-0.225,-0.173,-0.269,-0.305,0.015
'0:00.616',-0.083,-0.383,-0.299,0.233,0.108,-0.341,-0.021,0.037,0.033,-0.087,-0.224,-0.172,-0.268,-0.313,0.017
'0:00.617',-0.082,-0.376,-0.293,0.229,0.106,-0.335,-0.024,0.038,0.034,-0.089,-0.225,-0.173,-0.266,-0.306,0.017
'0:00.618',-0.083,-0.371,-0.289,0.227,0.103,-0.331,-0.027,0.035,0.032,-0.089,-0.226,-0.174,-0.265,-0.300,0.014
'0:00.619',-0.084,-0.380,-0.296,0.232,0.107,-0.338,-0.022,0.040,0.036,-0.085,-0.222,-0.172,-0.264,-0.305,0.016
'0:00.620',-0.083,-0.391,-0.307,0.236,0.112,-0.348,-0.019,0.045,0.042,-0.083,-0.219,-0.171,-0.266,-0.316,0.018
'0:00.621',-0.082,-0.393,-0.311,0.237,0.115,-0.352,-0.023,0.044,0.043,-0.081,-0.218,-0.171,-0.264,-0.320,0.016
'0:00.622',-0.085,-0.396,-0.311,0.240,0.114,-0.353,-0.022,0.044,0.043,-0.081,-0.219,-0.172,-0.263,-0.323,0.017
'0:00.623',-0.080,-0.392,-0.311,0.235,0.116,-0.351,-0.023,0.044,0.045,-0.076,-0.211,-0.166,-0.260,-0.323,0.014
'0:00.624',-0.075,-0.384,-0.308,0.229,0.117,-0.345,-0.021,0.049,0.050,-0.071,-0.208,-0.160,-0.257,-0.315,0.011
'0:00.625',-0.079,-0.380,-0.300,0.230,0.111,-0.340,-0.022,0.050,0.047,-0.077,-0.214,-0.168,-0.260,-0.310,0.010
'0:00.626',-0.082,-0.369,-0.287,0.225,0.103,-0.328,-0.028,0.043,0.043,-0.079,-0.216,-0.170,-0.260,-0.306,0.010
'0:00.627',-0.080,-0.367,-0.287,0.223,0.104,-0.327,-0.028,0.043,0.046,-0.077,-0.215,-0.169,-0.259,-0.303,0.011
'0:00.628',-0.080,-0.373,-0.293,0.226,0.107,-0.333,-0.028,0.044,0.049,-0.076,-0.214,-0.170,-0.258,-0.304,0.013
'0:00.629',-0.070,-0.365,-0.295,0.218,0.113,-0.331,-0.026,0.050,0.053,-0.071,-0.211,-0.166,-0.254,-0.306,0.013
'0:00.630',-0.070,-0.367,-0.297,0.218,0.115,-0.333,-0.028,0.049,0.055,-0.070,-0.209,-0.164,-0.252,-0.307,0.013
'0:00.631',-0.073,-0.367,-0.293,0.220,0.110,-0.330,-0.029,0.050,0.057,-0.068,-0.207,-0.163,-0.251,-0.303,0.009
'0:00.632',-0.072,-0.362,-0.290,0.217,0.110,-0.327,-0.028,0.051,0.057,-0.069,-0.208,-0.165,-0.252,-0.300,0.009
'0:00.633',-0.071,-0.363,-0.290,0.217,0.110,-0.327,-0.029,0.048,0.056,-0.072,-0.215,-0.169,-0.253,-0.296,0.013
'0:00.634',-0.064,-0.360,-0.295,0.212,0.116,-0.328,-0.025,0.053,0.061,-0.070,-0.215,-0.166,-0.251,-0.292,0.014
'0:00.635',-0.064,-0.368,-0.304,0.215,0.121,-0.337,-0.028,0.057,0.064,-0.068,-0.213,-0.168,-0.252,-0.293,0.017
'0:00.636',-0.065,-0.376,-0.310,0.220,0.123,-0.343,-0.024,0.062,0.068,-0.067,-0.213,-0.168,-0.254,-0.299,0.018
'0:00.637',-0.065,-0.377,-0.312,0.221,0.124,-0.344,-0.021,0.060,0.068,-0.067,-0.215,-0.168,-0.252,-0.306,0.017
'0:00.638',-0.066,-0.382,-0.315,0.224,0.125,-0.348,-0.026,0.059,0.069,-0.064,-0.213,-0.164,-0.248,-0.309,0.015
'0:00.639',-0.069,-0.392,-0.323,0.230,0.128,-0.357,-0.024,0.064,0.073,-0.061,-0.212,-0.163,-0.249,-0.320,0.015
'0:00.640',-0.064,-0.392,-0.328,0.228,0.132,-0.359,-0.025,0.062,0.073,-0.062,-0.216,-0.167,-0.251,-0.323,0.019
'0:00.641',-0.062,-0.389,-0.326,0.225,0.133,-0.357,-0.024,0.068,0.075,-0.061,-0.214,-0.166,-0.248,-0.319,0.018
'0:00.642',-0.071,-0.398,-0.327,0.234,0.129,-0.362,-0.025,0.067,0.076,-0.061,-0.216,-0.167,-0.249,-0.323,0.017
'0:00.643',-0.068,-0.400,-0.332,0.233,0.133,-0.365,-0.025,0.068,0.077,-0.059,-0.214,-0.165,-0.247,-0.327,0.016
'0:00.644',-0.065,-0.389,-0.324,0.226,0.130,-0.356,-0.027,0.067,0.079,-0.059,-0.214,-0.163,-0.244,-0.320,0.014
'0:00.645',-0.064,-0.379,-0.316,0.221,0.127,-0.347,-0.028,0.067,0.081,-0.058,-0.213,-0.162,-0.243,-0.310,0.013
'0:00.646',-0.058,-0.376,-0.318,0.216,0.131,-0.347,-0.026,0.071,0.083,-0.056,-0.210,-0.160,-0.241,-0.313,0.013
'0:00.647',-0.058,-0.373,-0.315,0.215,0.129,-0.344,-0.028,0.071,0.085,-0.054,-0.213,-0.161,-0.240,-0.316,0.013
'0:00.648',-0.053,-0.374,-0.320,0.213,0.134,-0.347,-0.023,0.080,0.091,-0.051,-0.211,-0.160,-0.240,-0.319,0.013
'0:00.649',-0.050,-0.377,-0.327,0.212,0.139,-0.351,-0.024,0.081,0.093,-0.050,-0.208,-0.158,-0.239,-0.315,0.011
'0:00.650',-0.052,-0.372,-0.320,0.212,0.134,-0.346,-0.025,0.077,0.093,-0.049,-0.210,-0.160,-0.238,-0.308,0.009
'0:00.651',-0.055,-0.372,-0.317,0.213,0.131,-0.344,-0.029,0.077,0.093,-0.048,-0.211,-0.161,-0.238,-0.312,0.009
'0:00.652',-0.054,-0.372,-0.318,0.213,0.132,-0.345,-0.030,0.077,0.094,-0.049,-0.212,-0.161,-0.236,-0.305,0.009
'0:00.653',-0.050,-0.373,-0.323,0.211,0.137,-0.348,-0.029,0.081,0.097,-0.048,-0.212,-0.161,-0.236,-0.304,0.011
'0:00.654',-0.042,-0.375,-0.333,0.208,0.145,-0.354,-0.032,0.084,0.100,-0.046,-0.212,-0.164,-0.234,-0.313,0.013
'0:00.655',-0.043,-0.372,-0.330,0.207,0.144,-0.351,-0.029,0.086,0.102,-0.047,-0.214,-0.166,-0.236,-0.315,0.014
'0:00.656',-0.046,-0.381,-0.335,0.213,0.144,-0.358,-0.026,0.090,0.106,-0.044,-0.215,-0.167,-0.237,-0.323,0.015
'0:00.657',-0.049,-0.387,-0.337,0.217,0.144,-0.362,-0.026,0.090,0.108,-0.044,-0.214,-0.166,-0.235,-0.324,0.014
'0:00.658',-0.048,-0.380,-0.332,0.213,0.142,-0.356,-0.029,0.091,0.110,-0.043,-0.214,-0.166,-0.234,-0.319,0.011
'0:00.659',-0.041,-0.383,-0.342,0.211,0.150,-0.362,-0.028,0.092,0.113,-0.042,-0.214,-0.166,-0.234,-0.322,0.015
'0:00.660',-0.038,-0.387,-0.347,0.212,0.155,-0.367,-0.025,0.098,0.117,-0.038,-0.212,-0.163,-0.234,-0.325,0.016
'0:00.661',-0.028,-0.383,-0.354,0.204,0.164,-0.368,-0.025,0.101,0.121,-0.035,-0.211,-0.163,-0.231,-0.326,0.017
'0:00.662',-0.018,-0.374,-0.355,0.197,0.169,-0.365,-0.022,0.105,0.126,-0.030,-0.209,-0.159,-0.228,-0.322,0.017
'0:00.663',-0.029,-0.379,-0.349,0.203,0.161,-0.364,-0.023,0.107,0.129,-0.030,-0.208,-0.158,-0.228,-0.326,0.017
'0:00.664',-0.038,-0.386,-0.347,0.211,0.154,-0.366,-0.025,0.104,0.124,-0.034,-0.214,-0.163,-0.228,-0.327,0.015
'0:00.665',-0.041,-0.386,-0.344,0.213,0.151,-0.364,-0.027,0.105,0.127,-0.029,-0.213,-0.160,-0.227,-0.327,0.011
'0:00.666',-0.034,-0.382,-0.347,0.207,0.157,-0.364,-0.026,0.111,0.135,-0.025,-0.207,-0.153,-0.222,-0.326,0.009
'0:00.667',-0.028,-0.386,-0.357,0.206,0.166,-0.371,-0.025,0.115,0.138,-0.022,-0.209,-0.155,-0.222,-0.323,0.011
'0:00.668',-0.031,-0.397,-0.365,0.213,0.167,-0.381,-0.026,0.114,0.140,-0.022,-0.213,-0.161,-0.226,-0.326,0.013
'0:00.669',-0.027,-0.392,-0.364,0.209,0.169,-0.378,-0.030,0.115,0.141,-0.022,-0.214,-0.161,-0.221,-0.326,0.013
'0:00.670',-0.028,-0.382,-0.353,0.204,0.163,-0.367,-0.034,0.113,0.140,-0.023,-0.214,-0.160,-0.217,-0.318,0.011
'0:00.671',-0.030,-0.382,-0.350,0.206,0.160,-0.366,-0.031,0.115,0.143,-0.021,-0.214,-0.161,-0.217,-0.311,0.011
'0:00.672',-0.030,-0.381,-0.350,0.205,0.161,-0.366,-0.034,0.117,0.148,-0.018,-0.214,-0.162,-0.215,-0.316,0.009
'0:00.673',-0.023,-0.373,-0.349,0.198,0.164,-0.361,-0.032,0.120,0.153,-0.015,-0.211,-0.161,-0.215,-0.317,0.010
'0:00.674',-0.007,-0.366,-0.358,0.186,0.176,-0.362,-0.025,0.130,0.164,-0.008,-0.205,-0.156,-0.214,-0.317,0.013
'0:00.675',0.004,-0.362,-0.366,0.178,0.186,-0.364,-0.022,0.137,0.171,-0.004,-0.202,-0.153,-0.214,-0.322,0.015
'0:00.676',0.014,-0.366,-0.380,0.175,0.198,-0.373,-0.017,0.144,0.180,0.002,-0.200,-0.148,-0.211,-0.326,0.016
'0:00.677',0.010,-0.373,-0.383,0.181,0.197,-0.378,-0.021,0.144,0.182,0.006,-0.196,-0.148,-0.209,-0.330,0.015
'0:00.678',0.009,-0.370,-0.379,0.180,0.195,-0.375,-0.025,0.141,0.180,0.004,-0.200,-0.152,-0.209,-0.333,0.011
'0:00.679',0.004,-0.383,-0.387,0.189,0.196,-0.385,-0.022,0.146,0.186,0.004,-0.204,-0.152,-0.206,-0.339,0.013
'0:00.680',-0.007,-0.405,-0.398,0.206,0.195,-0.401,-0.024,0.148,0.186,0.002,-0.204,-0.153,-0.203,-0.348,0.015
'0:00.681',-0.002,-0.401,-0.398,0.201,0.199,-0.399,-0.025,0.149,0.190,0.004,-0.204,-0.153,-0.202,-0.346,0.014
'0:00.682',0.005,-0.388,-0.393,0.191,0.199,-0.391,-0.024,0.155,0.196,0.009,-0.202,-0.151,-0.201,-0.341,0.013
'0:00.683',0.015,-0.389,-0.404,0.186,0.210,-0.397,-0.021,0.162,0.203,0.013,-0.197,-0.146,-0.197,-0.343,0.013
'0:00.684',0.017,-0.393,-0.409,0.188,0.213,-0.401,-0.018,0.166,0.210,0.021,-0.190,-0.140,-0.195,-0.349,0.011
'0:00.685',0.018,-0.387,-0.405,0.183,0.212,-0.396,-0.022,0.166,0.210,0.019,-0.192,-0.141,-0.193,-0.343,0.010
'0:00.686',0.025,-0.372,-0.397,0.173,0.211,-0.385,-0.025,0.166,0.211,0.018,-0.197,-0.144,-0.192,-0.333,0.009
'0:00.687',0.027,-0.376,-0.402,0.174,0.214,-0.389,-0.023,0.171,0.217,0.024,-0.192,-0.141,-0.192,-0.343,0.009
'0:00.688',0.033,-0.383,-0.414,0.174,0.224,-0.399,-0.021,0.177,0.227,0.029,-0.188,-0.138,-0.186,-0.349,0.011
'0:00.689',0.035,-0.373,-0.408,0.169,0.222,-0.391,-0.024,0.177,0.229,0.030,-0.187,-0.136,-0.182,-0.341,0.007
'0:00.690',0.041,-0.367,-0.408,0.163,0.225,-0.388,-0.028,0.177,0.232,0.032,-0.188,-0.136,-0.180,-0.336,0.007
'0:00.691',0.040,-0.373,-0.413,0.167,0.227,-0.393,-0.027,0.180,0.235,0.035,-0.186,-0.133,-0.177,-0.334,0.005
'0:00.692',0.034,-0.381,-0.413,0.173,0.224,-0.397,-0.029,0.181,0.236,0.036,-0.187,-0.134,-0.175,-0.335,0.005
'0:00.693',0.037,-0.381,-0.417,0.172,0.228,-0.400,-0.030,0.185,0.242,0.038,-0.187,-0.135,-0.173,-0.341,0.007
'0:00.694',0.038,-0.392,-0.429,0.176,0.234,-0.410,-0.029,0.189,0.247,0.042,-0.188,-0.136,-0.172,-0.346,0.009
'0:00.695',0.043,-0.397,-0.439,0.176,0.241,-0.417,-0.029,0.191,0.251,0.042,-0.190,-0.137,-0.171,-0.347,0.013
'0:00.696',0.051,-0.397,-0.448,0.172,0.250,-0.422,-0.026,0.197,0.261,0.049,-0.186,-0.132,-0.167,-0.352,0.013
'0:00.697',0.050,-0.405,-0.454,0.177,0.252,-0.429,-0.026,0.203,0.267,0.053,-0.182,-0.131,-0.165,-0.360,0.013
'0:00.698',0.043,-0.409,-0.451,0.183,0.247,-0.430,-0.032,0.200,0.267,0.051,-0.184,-0.133,-0.163,-0.359,0.011
'0:00.699',0.044,-0.413,-0.458,0.184,0.251,-0.435,-0.030,0.203,0.272,0.053,-0.184,-0.132,-0.160,-0.357,0.011
'0:00.700',0.052,-0.415,-0.467,0.181,0.259,-0.441,-0.025,0.214,0.282,0.061,-0.180,-0.127,-0.158,-0.359,0.012
'0:00.701',0.053,-0.420,-0.473,0.183,0.264,-0.447,-0.021,0.221,0.289,0.066,-0.179,-0.124,-0.155,-0.365,0.013
'0:00.702',0.060,-0.424,-0.483,0.182,0.272,-0.454,-0.021,0.223,0.294,0.070,-0.176,-0.123,-0.153,-0.372,0.014
'0:00.703',0.068,-0.417,-0.484,0.174,0.276,-0.451,-0.022,0.227,0.300,0.074,-0.172,-0.119,-0.150,-0.372,0.011
'0:00.704',0.076,-0.400,-0.476,0.162,0.277,-0.438,-0.022,0.231,0.306,0.077,-0.172,-0.116,-0.149,-0.367,0.009
'0:00.705',0.089,-0.388,-0.476,0.148,0.283,-0.432,-0.020,0.235,0.313,0.083,-0.168,-0.112,-0.146,-0.363,0.009
'0:00.706',0.095,-0.381,-0.475,0.142,0.285,-0.428,-0.021,0.236,0.316,0.085,-0.168,-0.111,-0.143,-0.361,0.008
'0:00.707',0.091,-0.387,-0.476,0.147,0.284,-0.431,-0.027,0.234,0.318,0.085,-0.172,-0.113,-0.141,-0.364,0.008
'0:00.708',0.088,-0.403,-0.490,0.157,0.289,-0.447,-0.023,0.241,0.326,0.088,-0.171,-0.113,-0.139,-0.367,0.009
'0:00.709',0.088,-0.397,-0.484,0.154,0.287,-0.441,-0.027,0.239,0.326,0.088,-0.174,-0.116,-0.139,-0.364,0.009
'0:00.710',0.087,-0.388,-0.474,0.149,0.281,-0.431,-0.035,0.235,0.324,0.086,-0.178,-0.120,-0.137,-0.361,0.007
'0:00.711',0.089,-0.391,-0.479,0.150,0.284,-0.435,-0.036,0.237,0.326,0.088,-0.179,-0.119,-0.135,-0.360,0.007
'0:00.712',0.090,-0.389,-0.478,0.149,0.284,-0.433,-0.030,0.246,0.336,0.094,-0.177,-0.116,-0.134,-0.356,0.007
'0:00.713',0.098,-0.391,-0.488,0.146,0.293,-0.439,-0.028,0.254,0.344,0.101,-0.172,-0.111,-0.131,-0.362,0.006
'0:00.714',0.110,-0.394,-0.502,0.142,0.306,-0.448,-0.030,0.255,0.348,0.101,-0.174,-0.113,-0.131,-0.369,0.009
'0:00.715',0.117,-0.388,-0.504,0.136,0.310,-0.446,-0.026,0.259,0.350,0.102,-0.177,-0.117,-0.131,-0.369,0.011
'0:00.716',0.117,-0.396,-0.512,0.140,0.315,-0.455,-0.028,0.261,0.355,0.105,-0.176,-0.115,-0.127,-0.376,0.013
'0:00.717',0.111,-0.408,-0.519,0.148,0.315,-0.464,-0.024,0.268,0.362,0.108,-0.174,-0.114,-0.127,-0.381,0.012
'0:00.718',0.115,-0.410,-0.524,0.147,0.320,-0.467,-0.022,0.273,0.369,0.116,-0.170,-0.108,-0.123,-0.378,0.009
'0:00.719',0.117,-0.416,-0.533,0.149,0.326,-0.474,-0.028,0.272,0.374,0.119,-0.170,-0.107,-0.121,-0.390,0.011
'0:00.720',0.117,-0.428,-0.545,0.155,0.332,-0.487,-0.025,0.277,0.378,0.121,-0.171,-0.107,-0.122,-0.402,0.013
'0:00.721',0.119,-0.428,-0.547,0.154,0.334,-0.487,-0.018,0.281,0.381,0.126,-0.170,-0.107,-0.119,-0.395,0.013
'0:00.722',0.117,-0.428,-0.544,0.155,0.331,-0.486,-0.019,0.283,0.384,0.124,-0.172,-0.110,-0.118,-0.395,0.013
'0:00.723',0.118,-0.429,-0.546,0.155,0.333,-0.488,-0.018,0.285,0.390,0.129,-0.169,-0.106,-0.116,-0.394,0.012
'0:00.724',0.126,-0.412,-0.538,0.143,0.332,-0.475,-0.021,0.284,0.392,0.132,-0.167,-0.104,-0.112,-0.385,0.009
'0:00.725',0.124,-0.410,-0.534,0.143,0.330,-0.472,-0.025,0.284,0.391,0.132,-0.170,-0.102,-0.108,-0.386,0.006
'0:00.726',0.124,-0.417,-0.541,0.146,0.333,-0.479,-0.021,0.288,0.397,0.136,-0.166,-0.102,-0.111,-0.391,0.007
'0:00.727',0.135,-0.416,-0.550,0.141,0.343,-0.483,-0.018,0.294,0.403,0.141,-0.163,-0.100,-0.110,-0.394,0.006
'0:00.728',0.139,-0.417,-0.555,0.139,0.347,-0.486,-0.017,0.297,0.407,0.144,-0.162,-0.098,-0.107,-0.396,0.006
'0:00.729',0.140,-0.410,-0.550,0.135,0.345,-0.480,-0.019,0.297,0.408,0.146,-0.161,-0.098,-0.105,-0.388,0.006
'0:00.730',0.140,-0.408,-0.547,0.134,0.344,-0.477,-0.020,0.298,0.410,0.147,-0.158,-0.098,-0.103,-0.387,0.004
'0:00.731',0.145,-0.405,-0.549,0.130,0.347,-0.477,-0.022,0.299,0.413,0.150,-0.156,-0.095,-0.102,-0.389,0.003
'0:00.732',0.149,-0.402,-0.550,0.127,0.350,-0.476,-0.023,0.299,0.416,0.151,-0.158,-0.093,-0.100,-0.387,0.003
'0:00.733',0.146,-0.410,-0.555,0.132,0.351,-0.483,-0.018,0.305,0.421,0.152,-0.156,-0.096,-0.102,-0.391,0.004
'0:00.734',0.146,-0.419,-0.566,0.136,0.356,-0.492,-0.019,0.307,0.425,0.155,-0.155,-0.094,-0.099,-0.397,0.006
'0:00.735',0.145,-0.437,-0.582,0.146,0.363,-0.509,-0.019,0.309,0.429,0.158,-0.153,-0.089,-0.095,-0.409,0.009
'0:00.736',0.148,-0.446,-0.594,0.148,0.371,-0.519,-0.011,0.317,0.434,0.162,-0.153,-0.090,-0.096,-0.408,0.010
'0:00.737',0.154,-0.440,-0.594,0.143,0.373,-0.516,-0.013,0.318,0.438,0.164,-0.151,-0.090,-0.095,-0.400,0.009
'0:00.738',0.157,-0.436,-0.593,0.140,0.375,-0.514,-0.017,0.317,0.439,0.163,-0.152,-0.090,-0.094,-0.404,0.009
'0:00.739',0.157,-0.444,-0.600,0.143,0.379,-0.521,-0.015,0.319,0.442,0.165,-0.157,-0.092,-0.093,-0.409,0.010
'0:00.740',0.162,-0.446,-0.607,0.142,0.385,-0.526,-0.013,0.321,0.446,0.168,-0.153,-0.091,-0.092,-0.412,0.011
'0:00.741',0.164,-0.446,-0.609,0.141,0.387,-0.527,-0.013,0.325,0.449,0.171,-0.154,-0.092,-0.092,-0.415,0.011
'0:00.742',0.159,-0.452,-0.610,0.146,0.385,-0.531,-0.015,0.330,0.453,0.171,-0.155,-0.091,-0.091,-0.424,0.011
'0:00.743',0.157,-0.454,-0.610,0.148,0.384,-0.531,-0.012,0.330,0.454,0.173,-0.154,-0.091,-0.089,-0.415,0.010
'0:00.744',0.160,-0.446,-0.606,0.143,0.383,-0.526,-0.011,0.329,0.456,0.175,-0.152,-0.089,-0.086,-0.406,0.007
'0:00.745',0.167,-0.437,-0.603,0.136,0.385,-0.520,-0.013,0.333,0.458,0.177,-0.150,-0.086,-0.083,-0.411,0.006
'0:00.746',0.167,-0.435,-0.601,0.134,0.384,-0.518,-0.015,0.330,0.459,0.180,-0.150,-0.085,-0.082,-0.411,0.005
'0:00.747',0.169,-0.434,-0.603,0.133,0.386,-0.518,-0.018,0.328,0.458,0.179,-0.152,-0.088,-0.083,-0.416,0.006
'0:00.748',0.172,-0.439,-0.610,0.134,0.391,-0.524,-0.014,0.335,0.463,0.179,-0.152,-0.088,-0.082,-0.418,0.008
'0:00.749',0.166,-0.440,-0.606,0.137,0.386,-0.523,-0.016,0.329,0.464,0.179,-0.151,-0.086,-0.081,-0.417,0.006
'0:00.750',0.171,-0.429,-0.599,0.129,0.386,-0.514,-0.018,0.330,0.464,0.182,-0.153,-0.088,-0.081,-0.413,0.004
'0:00.751',0.176,-0.422,-0.598,0.122,0.388,-0.510,-0.018,0.333,0.466,0.185,-0.151,-0.086,-0.077,-0.408,0.003
'0:00.752',0.168,-0.426,-0.594,0.129,0.381,-0.510,-0.022,0.327,0.465,0.183,-0.153,-0.089,-0.077,-0.408,0.003
'0:00.753',0.165,-0.438,-0.602,0.137,0.384,-0.520,-0.021,0.330,0.466,0.182,-0.157,-0.092,-0.077,-0.414,0.004
'0:00.754',0.165,-0.453,-0.617,0.144,0.391,-0.535,-0.019,0.331,0.467,0.183,-0.154,-0.090,-0.078,-0.422,0.007
'0:00.755',0.168,-0.456,-0.623,0.144,0.395,-0.539,-0.015,0.337,0.472,0.189,-0.151,-0.086,-0.078,-0.422,0.008
'0:00.756',0.172,-0.452,-0.624,0.140,0.398,-0.538,-0.017,0.338,0.474,0.189,-0.151,-0.087,-0.077,-0.423,0.009
'0:00.757',0.172,-0.452,-0.623,0.140,0.398,-0.537,-0.019,0.337,0.473,0.190,-0.152,-0.087,-0.076,-0.422,0.009
'0:00.758',0.171,-0.450,-0.620,0.140,0.395,-0.534,-0.009,0.338,0.475,0.194,-0.147,-0.081,-0.075,-0.418,0.006
'0:00.759',0.178,-0.447,-0.625,0.134,0.402,-0.535,-0.005,0.341,0.477,0.198,-0.141,-0.077,-0.075,-0.421,0.006
'0:00.760',0.181,-0.458,-0.638,0.138,0.410,-0.548,-0.002,0.347,0.481,0.202,-0.142,-0.074,-0.074,-0.427,0.009
'0:00.761',0.166,-0.471,-0.637,0.152,0.402,-0.554,-0.005,0.341,0.476,0.197,-0.147,-0.080,-0.075,-0.428,0.009
'0:00.762',0.163,-0.474,-0.636,0.155,0.400,-0.555,-0.010,0.335,0.471,0.193,-0.147,-0.083,-0.074,-0.431,0.008
'0:00.763',0.164,-0.470,-0.633,0.153,0.399,-0.552,-0.006,0.336,0.471,0.196,-0.144,-0.078,-0.073,-0.432,0.007
'0:00.764',0.160,-0.465,-0.625,0.152,0.393,-0.544,-0.009,0.332,0.468,0.197,-0.141,-0.075,-0.074,-0.432,0.004
'0:00.765',0.174,-0.448,-0.621,0.137,0.398,-0.534,-0.011,0.331,0.466,0.199,-0.137,-0.071,-0.071,-0.424,0.004
'0:00.766',0.174,-0.434,-0.608,0.130,0.392,-0.521,-0.009,0.330,0.465,0.199,-0.136,-0.070,-0.073,-0.420,0.002
'0:00.767',0.169,-0.439,-0.607,0.135,0.388,-0.523,-0.009,0.321,0.460,0.196,-0.137,-0.070,-0.074,-0.422,0.003
'0:00.768',0.169,-0.441,-0.609,0.136,0.390,-0.524,-0.009,0.322,0.454,0.192,-0.138,-0.074,-0.076,-0.416,0.004
'0:00.769',0.159,-0.440,-0.598,0.141,0.379,-0.519,-0.011,0.319,0.449,0.188,-0.141,-0.076,-0.076,-0.412,0.005
'0:00.770',0.154,-0.435,-0.589,0.140,0.372,-0.512,-0.016,0.305,0.439,0.183,-0.144,-0.079,-0.078,-0.407,0.003
'0:00.771',0.150,-0.431,-0.581,0.141,0.365,-0.506,-0.016,0.301,0.430,0.178,-0.145,-0.081,-0.081,-0.397,0.003
'0:00.772',0.147,-0.429,-0.576,0.141,0.362,-0.502,-0.020,0.295,0.425,0.175,-0.143,-0.077,-0.079,-0.390,0.003
'0:00.773',0.145,-0.433,-0.578,0.144,0.361,-0.505,-0.018,0.293,0.421,0.174,-0.143,-0.080,-0.081,-0.390,0.003
'0:00.774',0.140,-0.440,-0.580,0.150,0.360,-0.510,-0.017,0.290,0.415,0.170,-0.150,-0.084,-0.087,-0.398,0.007
'0:00.775',0.142,-0.436,-0.578,0.146,0.360,-0.506,-0.014,0.287,0.410,0.168,-0.151,-0.083,-0.090,-0.399,0.007
'0:00.776',0.146,-0.431,-0.578,0.142,0.362,-0.504,-0.007,0.288,0.409,0.170,-0.145,-0.081,-0.091,-0.400,0.008
'0:00.777',0.133,-0.443,-0.576,0.154,0.354,-0.509,-0.019,0.277,0.396,0.159,-0.150,-0.086,-0.095,-0.403,0.009
'0:00.778',0.117,-0.450,-0.567,0.166,0.343,-0.508,-0.019,0.269,0.384,0.153,-0.150,-0.088,-0.098,-0.398,0.005
'0:00.779',0.116,-0.444,-0.559,0.164,0.338,-0.501,-0.015,0.266,0.380,0.153,-0.147,-0.087,-0.101,-0.396,0.006
'0:00.780',0.110,-0.446,-0.554,0.168,0.333,-0.500,-0.018,0.261,0.372,0.147,-0.149,-0.090,-0.106,-0.395,0.006
'0:00.781',0.115,-0.439,-0.553,0.162,0.335,-0.496,-0.016,0.254,0.364,0.146,-0.146,-0.087,-0.106,-0.390,0.006
'0:00.782',0.112,-0.432,-0.543,0.160,0.328,-0.488,-0.014,0.250,0.357,0.144,-0.145,-0.086,-0.108,-0.385,0.006
'0:00.783',0.098,-0.438,-0.534,0.170,0.316,-0.486,-0.016,0.245,0.348,0.141,-0.146,-0.088,-0.112,-0.387,0.005
'0:00.784',0.086,-0.440,-0.525,0.177,0.306,-0.482,-0.021,0.233,0.334,0.132,-0.148,-0.088,-0.112,-0.387,0.004
'0:00.785',0.082,-0.433,-0.515,0.175,0.299,-0.474,-0.024,0.224,0.323,0.124,-0.151,-0.091,-0.116,-0.374,0.001
'0:00.786',0.087,-0.425,-0.512,0.169,0.299,-0.469,-0.028,0.213,0.313,0.119,-0.154,-0.092,-0.118,-0.369,0.001
'0:00.787',0.079,-0.418,-0.497,0.170,0.288,-0.458,-0.019,0.212,0.309,0.119,-0.151,-0.089,-0.121,-0.374,0.002
'0:00.788',0.075,-0.415,-0.490,0.170,0.283,-0.453,-0.015,0.214,0.305,0.117,-0.149,-0.091,-0.127,-0.376,0.003
'0:00.789',0.081,-0.401,-0.481,0.160,0.281,-0.441,-0.018,0.204,0.290,0.104,-0.153,-0.092,-0.130,-0.365,0.004
'0:00.790',0.073,-0.390,-0.462,0.158,0.268,-0.426,-0.020,0.195,0.280,0.099,-0.151,-0.091,-0.132,-0.354,0.003
'0:00.791',0.062,-0.398,-0.460,0.168,0.261,-0.429,-0.023,0.186,0.269,0.092,-0.152,-0.093,-0.134,-0.349,0.003
'0:00.792',0.051,-0.400,-0.450,0.174,0.251,-0.424,-0.023,0.178,0.256,0.083,-0.158,-0.098,-0.140,-0.343,0.003
'0:00.793',0.041,-0.398,-0.439,0.178,0.240,-0.418,-0.029,0.169,0.244,0.074,-0.162,-0.102,-0.142,-0.334,0.005
'0:00.794',0.042,-0.403,-0.445,0.180,0.243,-0.424,-0.031,0.162,0.236,0.068,-0.166,-0.105,-0.146,-0.337,0.009
'0:00.795',0.033,-0.408,-0.440,0.188,0.236,-0.424,-0.029,0.158,0.227,0.062,-0.169,-0.110,-0.152,-0.337,0.010
'0:00.796',0.023,-0.410,-0.432,0.193,0.228,-0.421,-0.029,0.151,0.216,0.052,-0.174,-0.116,-0.158,-0.336,0.014
'0:00.797',0.020,-0.407,-0.427,0.194,0.224,-0.417,-0.029,0.145,0.208,0.050,-0.174,-0.116,-0.162,-0.337,0.014
'0:00.798',0.019,-0.403,-0.421,0.192,0.221,-0.412,-0.026,0.141,0.202,0.046,-0.172,-0.112,-0.164,-0.335,0.014
'0:00.799',0.018,-0.404,-0.421,0.192,0.221,-0.412,-0.025,0.136,0.194,0.042,-0.172,-0.113,-0.167,-0.338,0.016
'0:00.800',0.011,-0.409,-0.420,0.199,0.215,-0.415,-0.029,0.133,0.187,0.037,-0.173,-0.114,-0.169,-0.341,0.018
'0:00.801',0.011,-0.410,-0.421,0.199,0.216,-0.415,-0.025,0.131,0.181,0.034,-0.173,-0.115,-0.173,-0.337,0.019
'0:00.802',0.007,-0.414,-0.421,0.203,0.214,-0.417,-0.025,0.124,0.172,0.031,-0.175,-0.116,-0.176,-0.333,0.018
'0:00.803',-0.001,-0.416,-0.414,0.208,0.207,-0.415,-0.025,0.119,0.164,0.025,-0.176,-0.114,-0.179,-0.338,0.017
'0:00.804',-0.006,-0.405,-0.398,0.205,0.196,-0.402,-0.026,0.113,0.155,0.019,-0.175,-0.116,-0.181,-0.330,0.013
'0:00.805',-0.014,-0.397,-0.383,0.205,0.184,-0.390,-0.034,0.101,0.142,0.011,-0.181,-0.120,-0.185,-0.324,0.012
'0:00.806',-0.017,-0.387,-0.369,0.202,0.176,-0.378,-0.035,0.091,0.131,0.004,-0.185,-0.122,-0.189,-0.321,0.011
'0:00.807',-0.015,-0.375,-0.359,0.195,0.172,-0.367,-0.035,0.092,0.127,0.002,-0.183,-0.120,-0.188,-0.309,0.010
'0:00.808',-0.011,-0.373,-0.362,0.192,0.175,-0.368,-0.033,0.088,0.122,-0.004,-0.186,-0.122,-0.191,-0.307,0.013
'0:00.809',-0.018,-0.381,-0.362,0.199,0.172,-0.371,-0.034,0.081,0.114,-0.010,-0.189,-0.124,-0.195,-0.314,0.015
'0:00.810',-0.024,-0.377,-0.353,0.200,0.165,-0.365,-0.035,0.078,0.108,-0.013,-0.188,-0.122,-0.196,-0.310,0.012
'0:00.811',-0.021,-0.371,-0.350,0.196,0.166,-0.361,-0.035,0.075,0.102,-0.017,-0.186,-0.121,-0.196,-0.310,0.013
'0:00.812',-0.025,-0.376,-0.350,0.200,0.163,-0.363,-0.032,0.075,0.098,-0.019,-0.188,-0.122,-0.201,-0.315,0.016
'0:00.813',-0.026,-0.372,-0.346,0.199,0.161,-0.359,-0.035,0.067,0.089,-0.025,-0.192,-0.127,-0.202,-0.301,0.018
'0:00.814',-0.028,-0.375,-0.347,0.201,0.160,-0.361,-0.036,0.062,0.085,-0.029,-0.192,-0.126,-0.203,-0.299,0.021
'0:00.815',-0.032,-0.383,-0.350,0.207,0.160,-0.366,-0.033,0.065,0.083,-0.030,-0.191,-0.126,-0.206,-0.309,0.024
'0:00.816',-0.041,-0.395,-0.353,0.217,0.157,-0.374,-0.034,0.059,0.074,-0.036,-0.194,-0.131,-0.208,-0.310,0.025
'0:00.817',-0.049,-0.398,-0.348,0.223,0.150,-0.372,-0.037,0.050,0.068,-0.041,-0.194,-0.132,-0.208,-0.306,0.025
'0:00.818',-0.046,-0.391,-0.345,0.218,0.149,-0.368,-0.039,0.050,0.064,-0.044,-0.193,-0.132,-0.210,-0.310,0.025
'0:00.819',-0.047,-0.393,-0.345,0.220,0.149,-0.369,-0.034,0.052,0.063,-0.045,-0.193,-0.130,-0.212,-0.316,0.025
'0:00.820',-0.044,-0.386,-0.342,0.214,0.149,-0.364,-0.031,0.048,0.060,-0.044,-0.189,-0.130,-0.214,-0.314,0.025
'0:00.821',-0.038,-0.377,-0.338,0.207,0.150,-0.357,-0.033,0.049,0.057,-0.048,-0.191,-0.129,-0.215,-0.309,0.026
'0:00.822',-0.041,-0.375,-0.334,0.207,0.146,-0.354,-0.033,0.044,0.052,-0.051,-0.192,-0.131,-0.217,-0.308,0.029
'0:00.823',-0.043,-0.382,-0.338,0.212,0.147,-0.360,-0.035,0.043,0.051,-0.050,-0.185,-0.129,-0.218,-0.310,0.027
'0:00.824',-0.053,-0.383,-0.330,0.218,0.139,-0.356,-0.034,0.043,0.048,-0.053,-0.190,-0.127,-0.217,-0.307,0.025
'0:00.825',-0.059,-0.379,-0.320,0.219,0.131,-0.349,-0.037,0.032,0.038,-0.059,-0.193,-0.131,-0.222,-0.306,0.025
'0:00.826',-0.059,-0.376,-0.316,0.217,0.128,-0.345,-0.043,0.026,0.032,-0.061,-0.190,-0.131,-0.222,-0.304,0.023
'0:00.827',-0.061,-0.374,-0.312,0.217,0.126,-0.344,-0.040,0.026,0.032,-0.061,-0.190,-0.130,-0.222,-0.298,0.024
'0:00.828',-0.057,-0.373,-0.316,0.215,0.130,-0.344,-0.037,0.030,0.030,-0.063,-0.190,-0.131,-0.226,-0.296,0.028
'0:00.829',-0.058,-0.367,-0.308,0.212,0.126,-0.338,-0.043,0.024,0.022,-0.069,-0.192,-0.133,-0.225,-0.290,0.028
'0:00.830',-0.059,-0.362,-0.303,0.210,0.122,-0.333,-0.053,0.015,0.018,-0.072,-0.193,-0.134,-0.223,-0.288,0.026
'0:00.831',-0.065,-0.357,-0.292,0.211,0.114,-0.325,-0.051,0.012,0.014,-0.074,-0.194,-0.134,-0.223,-0.280,0.026
'0:00.832',-0.070,-0.354,-0.284,0.211,0.108,-0.320,-0.047,0.011,0.011,-0.076,-0.195,-0.137,-0.224,-0.271,0.027
'0:00.833',-0.065,-0.359,-0.293,0.211,0.115,-0.327,-0.049,0.012,0.011,-0.077,-0.195,-0.136,-0.224,-0.279,0.027
'0:00.834',-0.067,-0.367,-0.300,0.217,0.117,-0.334,-0.050,0.012,0.011,-0.077,-0.195,-0.138,-0.226,-0.284,0.029
'0:00.835',-0.065,-0.368,-0.303,0.216,0.119,-0.336,-0.049,0.013,0.010,-0.076,-0.195,-0.137,-0.226,-0.284,0.030
'0:00.836',-0.060,-0.367,-0.306,0.214,0.123,-0.337,-0.045,0.012,0.009,-0.077,-0.195,-0.137,-0.226,-0.287,0.033
'0:00.837',-0.065,-0.369,-0.304,0.217,0.120,-0.337,-0.049,0.008,0.005,-0.082,-0.198,-0.139,-0.227,-0.286,0.032
'0:00.838',-0.062,-0.365,-0.302,0.214,0.120,-0.334,-0.051,0.005,0.000,-0.085,-0.199,-0.139,-0.225,-0.284,0.030
'0:00.839',-0.067,-0.372,-0.304,0.220,0.119,-0.339,-0.047,0.007,0.002,-0.084,-0.197,-0.139,-0.227,-0.288,0.032
'0:00.840',-0.075,-0.384,-0.308,0.230,0.117,-0.346,-0.045,0.009,0.001,-0.084,-0.198,-0.141,-0.230,-0.293,0.033
'0:00.841',-0.072,-0.383,-0.310,0.228,0.119,-0.347,-0.045,0.009,0.003,-0.084,-0.200,-0.140,-0.230,-0.297,0.034
'0:00.842',-0.070,-0.376,-0.305,0.223,0.117,-0.341,-0.045,0.008,0.003,-0.085,-0.200,-0.143,-0.232,-0.295,0.035
'0:00.843',-0.065,-0.370,-0.304,0.217,0.120,-0.338,-0.046,0.008,0.002,-0.082,-0.196,-0.140,-0.229,-0.287,0.034
'0:00.844',-0.061,-0.363,-0.301,0.212,0.120,-0.333,-0.046,0.007,0.003,-0.080,-0.193,-0.135,-0.227,-0.278,0.032
'0:00.845',-0.063,-0.356,-0.292,0.209,0.115,-0.324,-0.049,0.004,-0.001,-0.083,-0.192,-0.135,-0.227,-0.276,0.029
'0:00.846',-0.066,-0.355,-0.289,0.210,0.113,-0.323,-0.051,0.002,-0.002,-0.081,-0.189,-0.131,-0.226,-0.280,0.026
'0:00.847',-0.064,-0.357,-0.293,0.210,0.115,-0.325,-0.045,0.005,0.001,-0.079,-0.188,-0.131,-0.230,-0.285,0.026
'0:00.848',-0.060,-0.357,-0.296,0.208,0.118,-0.327,-0.043,0.004,0.002,-0.079,-0.188,-0.132,-0.232,-0.293,0.028
'0:00.849',-0.059,-0.352,-0.292,0.205,0.117,-0.323,-0.049,0.001,0.001,-0.080,-0.188,-0.129,-0.229,-0.285,0.027
'0:00.850',-0.066,-0.348,-0.282,0.207,0.108,-0.316,-0.049,0.002,-0.003,-0.081,-0.190,-0.130,-0.228,-0.277,0.025
'0:00.851',-0.070,-0.351,-0.280,0.211,0.105,-0.316,-0.051,-0.002,-0.005,-0.082,-0.186,-0.127,-0.228,-0.278,0.025
'0:00.852',-0.069,-0.351,-0.282,0.210,0.107,-0.317,-0.053,-0.003,-0.006,-0.085,-0.189,-0.129,-0.229,-0.271,0.024
'0:00.853',-0.071,-0.348,-0.276,0.209,0.102,-0.312,-0.052,-0.001,-0.007,-0.085,-0.193,-0.132,-0.229,-0.271,0.025
'0:00.854',-0.073,-0.353,-0.279,0.213,0.103,-0.316,-0.052,-0.006,-0.009,-0.087,-0.195,-0.134,-0.230,-0.278,0.030
'0:00.855',-0.077,-0.360,-0.282,0.218,0.102,-0.321,-0.051,-0.005,-0.009,-0.088,-0.195,-0.135,-0.231,-0.283,0.032
'0:00.856',-0.074,-0.362,-0.287,0.218,0.107,-0.325,-0.050,-0.003,-0.008,-0.087,-0.194,-0.134,-0.232,-0.284,0.033
'0:00.857',-0.076,-0.367,-0.290,0.221,0.107,-0.329,-0.052,-0.006,-0.008,-0.087,-0.193,-0.134,-0.231,-0.281,0.032
'0:00.858',-0.081,-0.366,-0.284,0.224,0.102,-0.325,-0.056,-0.006,-0.009,-0.088,-0.193,-0.134,-0.231,-0.275,0.030
'0:00.859',-0.081,-0.374,-0.293,0.227,0.106,-0.334,-0.051,-0.005,-0.009,-0.088,-0.193,-0.135,-0.234,-0.281,0.034
'0:00.860',-0.078,-0.378,-0.299,0.228,0.111,-0.339,-0.049,-0.002,-0.006,-0.085,-0.191,-0.133,-0.233,-0.284,0.035
'0:00.861',-0.077,-0.376,-0.298,0.227,0.111,-0.337,-0.048,-0.001,-0.005,-0.085,-0.192,-0.132,-0.231,-0.280,0.036
'0:00.862',-0.082,-0.381,-0.299,0.231,0.109,-0.340,-0.048,-0.001,-0.005,-0.086,-0.191,-0.133,-0.233,-0.289,0.036
'0:00.863',-0.082,-0.376,-0.294,0.229,0.106,-0.335,-0.050,-0.002,-0.007,-0.086,-0.189,-0.132,-0.232,-0.283,0.035
'0:00.864',-0.081,-0.370,-0.289,0.225,0.104,-0.330,-0.050,-0.006,-0.011,-0.086,-0.188,-0.131,-0.233,-0.281,0.032
'0:00.865',-0.088,-0.367,-0.279,0.228,0.096,-0.323,-0.054,-0.010,-0.013,-0.087,-0.190,-0.132,-0.233,-0.284,0.032
'0:00.866',-0.097,-0.369,-0.273,0.233,0.088,-0.321,-0.052,-0.013,-0.015,-0.087,-0.190,-0.130,-0.232,-0.281,0.029
'0:00.867',-0.089,-0.367,-0.278,0.228,0.095,-0.323,-0.058,-0.013,-0.014,-0.089,-0.188,-0.128,-0.230,-0.291,0.026
'0:00.868',-0.083,-0.365,-0.281,0.224,0.100,-0.324,-0.059,-0.014,-0.016,-0.093,-0.194,-0.132,-0.231,-0.290,0.028
'0:00.869',-0.079,-0.350,-0.271,0.214,0.097,-0.311,-0.055,-0.013,-0.018,-0.095,-0.197,-0.134,-0.231,-0.272,0.026
'0:00.870',-0.070,-0.335,-0.264,0.202,0.097,-0.299,-0.057,-0.010,-0.015,-0.090,-0.191,-0.128,-0.227,-0.264,0.024
'0:00.871',-0.066,-0.331,-0.264,0.198,0.100,-0.297,-0.050,-0.005,-0.008,-0.081,-0.181,-0.120,-0.225,-0.263,0.024
'0:00.872',-0.068,-0.333,-0.265,0.200,0.099,-0.299,-0.047,0.000,-0.005,-0.079,-0.180,-0.121,-0.226,-0.261,0.025
'0:00.873',-0.076,-0.348,-0.271,0.212,0.098,-0.309,-0.051,-0.004,-0.009,-0.083,-0.184,-0.124,-0.228,-0.273,0.026
'0:00.874',-0.079,-0.349,-0.270,0.213,0.096,-0.309,-0.051,-0.006,-0.009,-0.086,-0.186,-0.126,-0.230,-0.275,0.028
'0:00.875',-0.079,-0.349,-0.270,0.213,0.096,-0.309,-0.052,-0.005,-0.011,-0.088,-0.189,-0.131,-0.231,-0.270,0.030
'0:00.876',-0.074,-0.351,-0.277,0.212,0.102,-0.314,-0.052,-0.006,-0.011,-0.087,-0.189,-0.130,-0.228,-0.271,0.032
'0:00.877',-0.074,-0.355,-0.281,0.215,0.103,-0.318,-0.051,-0.006,-0.010,-0.086,-0.190,-0.128,-0.226,-0.267,0.032
'0:00.878',-0.087,-0.366,-0.279,0.227,0.096,-0.323,-0.056,-0.009,-0.013,-0.088,-0.191,-0.129,-0.228,-0.273,0.030
'0:00.879',-0.092,-0.377,-0.284,0.234,0.097,-0.331,-0.050,-0.004,-0.010,-0.086,-0.188,-0.129,-0.231,-0.279,0.030
'0:00.880',-0.089,-0.381,-0.291,0.235,0.101,-0.336,-0.047,0.001,-0.008,-0.085,-0.188,-0.129,-0.231,-0.283,0.031
'0:00.881',-0.084,-0.363,-0.279,0.223,0.098,-0.321,-0.055,-0.006,-0.011,-0.089,-0.191,-0.132,-0.228,-0.280,0.033
'0:00.882',-0.083,-0.359,-0.277,0.221,0.097,-0.318,-0.047,-0.004,-0.009,-0.086,-0.189,-0.131,-0.231,-0.278,0.032
'0:00.883',-0.085,-0.362,-0.277,0.224,0.097,-0.320,-0.045,-0.002,-0.007,-0.084,-0.186,-0.130,-0.232,-0.277,0.030
'0:00.884',-0.085,-0.354,-0.269,0.219,0.092,-0.311,-0.048,-0.004,-0.009,-0.083,-0.184,-0.129,-0.231,-0.274,0.028
'0:00.885',-0.078,-0.348,-0.270,0.213,0.096,-0.309,-0.047,-0.003,-0.006,-0.080,-0.181,-0.126,-0.231,-0.271,0.025
'0:00.886',-0.079,-0.342,-0.263,0.210,0.092,-0.302,-0.047,-0.004,-0.007,-0.081,-0.183,-0.127,-0.231,-0.267,0.024
'0:00.887',-0.085,-0.344,-0.259,0.214,0.087,-0.301,-0.049,-0.005,-0.009,-0.083,-0.186,-0.128,-0.231,-0.267,0.025
'0:00.888',-0.085,-0.351,-0.266,0.217,0.091,-0.308,-0.050,-0.003,-0.008,-0.083,-0.185,-0.129,-0.229,-0.271,0.028
'0:00.889',-0.081,-0.347,-0.266,0.214,0.092,-0.306,-0.051,-0.004,-0.007,-0.084,-0.185,-0.127,-0.227,-0.271,0.028
'0:00.890',-0.078,-0.335,-0.256,0.206,0.089,-0.295,-0.051,-0.007,-0.006,-0.080,-0.181,-0.121,-0.222,-0.257,0.023
'0:00.891',-0.085,-0.336,-0.249,0.210,0.083,-0.292,-0.052,-0.009,-0.009,-0.084,-0.184,-0.127,-0.225,-0.250,0.021
'0:00.892',-0.089,-0.340,-0.250,0.214,0.081,-0.295,-0.057,-0.011,-0.014,-0.091,-0.195,-0.135,-0.230,-0.250,0.023
'0:00.893',-0.091,-0.340,-0.248,0.215,0.079,-0.294,-0.052,-0.009,-0.013,-0.089,-0.191,-0.133,-0.230,-0.258,0.025
'0:00.894',-0.090,-0.351,-0.261,0.221,0.086,-0.306,-0.049,-0.007,-0.009,-0.085,-0.184,-0.129,-0.228,-0.274,0.026
'0:00.895',-0.082,-0.351,-0.269,0.216,0.094,-0.310,-0.051,-0.005,-0.007,-0.086,-0.186,-0.130,-0.226,-0.273,0.029
'0:00.896',-0.073,-0.344,-0.271,0.208,0.099,-0.308,-0.048,0.001,-0.004,-0.086,-0.192,-0.134,-0.228,-0.267,0.031
'0:00.897',-0.077,-0.349,-0.272,0.213,0.098,-0.310,-0.047,0.000,-0.003,-0.086,-0.189,-0.133,-0.230,-0.267,0.029
'0:00.898',-0.089,-0.354,-0.265,0.222,0.088,-0.309,-0.049,-0.003,-0.006,-0.088,-0.189,-0.134,-0.232,-0.267,0.026
'0:00.899',-0.088,-0.358,-0.270,0.223,0.091,-0.314,-0.046,-0.004,-0.008,-0.088,-0.189,-0.135,-0.231,-0.272,0.029
'0:00.900',-0.086,-0.362,-0.277,0.224,0.096,-0.320,-0.044,0.001,-0.004,-0.085,-0.186,-0.134,-0.233,-0.284,0.031
'0:00.901',-0.086,-0.365,-0.280,0.225,0.098,-0.323,-0.043,0.005,0.000,-0.081,-0.185,-0.132,-0.233,-0.289,0.033
'0:00.902',-0.081,-0.360,-0.279,0.221,0.099,-0.320,-0.045,0.005,-0.002,-0.081,-0.184,-0.131,-0.230,-0.274,0.031
'0:00.903',-0.086,-0.358,-0.272,0.222,0.093,-0.315,-0.048,0.004,-0.004,-0.082,-0.186,-0.132,-0.231,-0.266,0.028
'0:00.904',-0.094,-0.357,-0.263,0.226,0.085,-0.310,-0.047,-0.002,-0.005,-0.083,-0.189,-0.133,-0.233,-0.271,0.028
'0:00.905',-0.091,-0.349,-0.258,0.220,0.084,-0.303,-0.051,-0.004,-0.006,-0.084,-0.188,-0.133,-0.232,-0.271,0.025
'0:00.906',-0.097,-0.356,-0.260,0.226,0.082,-0.308,-0.051,-0.003,-0.006,-0.083,-0.186,-0.132,-0.232,-0.271,0.022
'0:00.907',-0.100,-0.364,-0.264,0.232,0.083,-0.314,-0.049,0.001,-0.003,-0.077,-0.183,-0.131,-0.233,-0.272,0.021
'0:00.908',-0.090,-0.354,-0.264,0.222,0.087,-0.309,-0.048,0.003,-0.003,-0.079,-0.184,-0.132,-0.234,-0.270,0.021
'0:00.909',-0.085,-0.346,-0.261,0.215,0.088,-0.304,-0.048,0.000,-0.003,-0.079,-0.185,-0.133,-0.233,-0.266,0.020
'0:00.910',-0.087,-0.335,-0.247,0.211,0.080,-0.291,-0.049,-0.004,-0.004,-0.079,-0.183,-0.132,-0.232,-0.257,0.017
'0:00.911',-0.087,-0.329,-0.240,0.207,0.076,-0.284,-0.053,-0.006,-0.007,-0.082,-0.186,-0.133,-0.232,-0.255,0.017
'0:00.912',-0.079,-0.327,-0.247,0.203,0.085,-0.287,-0.051,-0.004,-0.003,-0.077,-0.184,-0.128,-0.229,-0.254,0.017
'0:00.913',-0.079,-0.328,-0.248,0.203,0.085,-0.288,-0.048,0.001,-0.001,-0.075,-0.181,-0.128,-0.232,-0.249,0.017
'0:00.914',-0.083,-0.338,-0.255,0.210,0.086,-0.296,-0.046,0.001,-0.001,-0.075,-0.182,-0.131,-0.234,-0.255,0.019
'0:00.915',-0.082,-0.350,-0.268,0.215,0.093,-0.309,-0.042,0.005,0.004,-0.073,-0.179,-0.127,-0.232,-0.265,0.021
'0:00.916',-0.082,-0.347,-0.265,0.214,0.092,-0.306,-0.044,0.004,0.003,-0.073,-0.181,-0.129,-0.233,-0.265,0.022
'0:00.917',-0.083,-0.334,-0.250,0.207,0.084,-0.291,-0.046,0.002,-0.001,-0.077,-0.185,-0.133,-0.234,-0.257,0.021
'0:00.918',-0.080,-0.333,-0.253,0.206,0.086,-0.292,-0.051,0.001,-0.001,-0.079,-0.183,-0.131,-0.233,-0.258,0.019
'0:00.919',-0.084,-0.349,-0.265,0.216,0.090,-0.306,-0.042,0.004,0.004,-0.072,-0.180,-0.127,-0.231,-0.267,0.019
'0:00.920',-0.085,-0.363,-0.278,0.224,0.097,-0.321,-0.037,0.013,0.011,-0.069,-0.179,-0.124,-0.231,-0.275,0.021
'0:00.921',-0.082,-0.363,-0.281,0.223,0.100,-0.322,-0.041,0.014,0.013,-0.071,-0.183,-0.128,-0.233,-0.279,0.025
'0:00.922',-0.082,-0.362,-0.280,0.222,0.099,-0.321,-0.036,0.013,0.010,-0.072,-0.184,-0.129,-0.234,-0.280,0.025
'0:00.923',-0.083,-0.361,-0.278,0.222,0.098,-0.320,-0.043,0.011,0.007,-0.073,-0.183,-0.128,-0.233,-0.277,0.022
'0:00.924',-0.090,-0.358,-0.267,0.224,0.088,-0.312,-0.043,0.008,0.006,-0.074,-0.183,-0.128,-0.232,-0.276,0.021
'0:00.925',-0.092,-0.353,-0.260,0.223,0.084,-0.306,-0.041,0.009,0.006,-0.074,-0.183,-0.129,-0.233,-0.266,0.016
'0:00.926',-0.085,-0.343,-0.258,0.214,0.087,-0.300,-0.046,0.004,0.004,-0.075,-0.183,-0.130,-0.233,-0.252,0.014
'0:00.927',-0.078,-0.342,-0.263,0.209,0.092,-0.302,-0.046,0.005,0.005,-0.073,-0.180,-0.126,-0.231,-0.258,0.016
'0:00.928',-0.084,-0.348,-0.264,0.216,0.090,-0.306,-0.045,0.008,0.007,-0.071,-0.179,-0.126,-0.231,-0.267,0.018
'0:00.929',-0.089,-0.346,-0.258,0.217,0.085,-0.302,-0.048,0.004,0.004,-0.074,-0.181,-0.126,-0.229,-0.266,0.018
'0:00.930',-0.089,-0.335,-0.246,0.211,0.079,-0.290,-0.048,0.003,0.003,-0.074,-0.182,-0.128,-0.229,-0.255,0.013
'0:00.931',-0.089,-0.333,-0.243,0.211,0.077,-0.288,-0.048,0.003,0.002,-0.075,-0.185,-0.134,-0.234,-0.255,0.013
'0:00.932',-0.088,-0.335,-0.246,0.211,0.079,-0.290,-0.050,0.000,-0.001,-0.077,-0.187,-0.133,-0.234,-0.255,0.016
'0:00.933',-0.085,-0.332,-0.246,0.208,0.081,-0.288,-0.049,0.003,0.001,-0.076,-0.187,-0.133,-0.234,-0.246,0.018
'0:00.934',-0.086,-0.333,-0.247,0.209,0.081,-0.290,-0.049,0.004,0.003,-0.077,-0.185,-0.134,-0.234,-0.254,0.021
'0:00.935',-0.091,-0.343,-0.251,0.216,0.081,-0.297,-0.046,0.006,0.004,-0.077,-0.191,-0.137,-0.235,-0.257,0.022
'0:00.936',-0.095,-0.353,-0.258,0.223,0.083,-0.305,-0.045,0.006,0.004,-0.079,-0.195,-0.141,-0.237,-0.258,0.025
'0:00.937',-0.096,-0.355,-0.259,0.225,0.082,-0.306,-0.046,0.004,0.003,-0.077,-0.192,-0.139,-0.236,-0.260,0.023
'0:00.938',-0.093,-0.347,-0.254,0.220,0.081,-0.301,-0.044,0.005,0.004,-0.075,-0.189,-0.135,-0.234,-0.257,0.020
'0:00.939',-0.093,-0.349,-0.256,0.221,0.082,-0.302,-0.046,0.004,0.004,-0.075,-0.188,-0.135,-0.234,-0.260,0.021
'0:00.940',-0.090,-0.362,-0.272,0.226,0.091,-0.317,-0.044,0.009,0.009,-0.071,-0.184,-0.132,-0.233,-0.269,0.022
'0:00.941',-0.087,-0.367,-0.280,0.227,0.097,-0.324,-0.042,0.010,0.009,-0.071,-0.184,-0.131,-0.232,-0.279,0.022
'0:00.942',-0.089,-0.355,-0.266,0.222,0.088,-0.310,-0.044,0.007,0.006,-0.074,-0.189,-0.135,-0.232,-0.272,0.021
'0:00.943',-0.090,-0.350,-0.260,0.220,0.086,-0.305,-0.042,0.007,0.004,-0.076,-0.188,-0.135,-0.231,-0.262,0.019
'0:00.944',-0.086,-0.349,-0.262,0.217,0.087,-0.305,-0.046,0.006,0.004,-0.075,-0.184,-0.135,-0.230,-0.263,0.018
'0:00.945',-0.085,-0.343,-0.259,0.213,0.087,-0.301,-0.048,0.002,0.002,-0.074,-0.184,-0.134,-0.230,-0.263,0.018
'0:00.946',-0.092,-0.346,-0.254,0.219,0.081,-0.299,-0.044,0.004,0.001,-0.074,-0.184,-0.135,-0.231,-0.266,0.017
'0:00.947',-0.101,-0.357,-0.256,0.229,0.078,-0.306,-0.047,0.004,0.001,-0.073,-0.185,-0.135,-0.229,-0.270,0.018
'0:00.948',-0.094,-0.363,-0.269,0.228,0.087,-0.316,-0.045,0.006,0.005,-0.070,-0.182,-0.132,-0.229,-0.266,0.018
'0:00.949',-0.089,-0.348,-0.259,0.218,0.085,-0.303,-0.044,0.007,0.006,-0.069,-0.179,-0.130,-0.227,-0.259,0.017
'0:00.950',-0.085,-0.338,-0.252,0.211,0.084,-0.295,-0.049,0.003,0.003,-0.072,-0.182,-0.133,-0.226,-0.253,0.016
'0:00.951',-0.087,-0.346,-0.259,0.216,0.086,-0.302,-0.053,0.001,0.001,-0.073,-0.182,-0.133,-0.227,-0.259,0.013
'0:00.952',-0.098,-0.349,-0.251,0.223,0.076,-0.300,-0.051,-0.003,-0.001,-0.075,-0.181,-0.134,-0.229,-0.261,0.014
'0:00.953',-0.096,-0.344,-0.248,0.220,0.076,-0.296,-0.048,0.002,-0.002,-0.075,-0.183,-0.136,-0.229,-0.257,0.015
'0:00.954',-0.092,-0.348,-0.256,0.220,0.083,-0.302,-0.052,-0.001,-0.003,-0.082,-0.190,-0.141,-0.231,-0.262,0.017
'0:00.955',-0.092,-0.353,-0.261,0.223,0.085,-0.307,-0.049,-0.001,-0.002,-0.083,-0.190,-0.142,-0.233,-0.262,0.019
'0:00.956',-0.096,-0.361,-0.265,0.228,0.085,-0.313,-0.049,0.003,0.000,-0.079,-0.185,-0.140,-0.233,-0.269,0.020
'0:00.957',-0.097,-0.362,-0.265,0.229,0.085,-0.314,-0.049,0.001,0.000,-0.081,-0.189,-0.140,-0.234,-0.266,0.020
'0:00.958',-0.096,-0.355,-0.260,0.225,0.083,-0.307,-0.050,-0.002,-0.004,-0.081,-0.191,-0.139,-0.235,-0.254,0.017
'0:00.959',-0.094,-0.355,-0.261,0.225,0.084,-0.308,-0.050,-0.004,-0.005,-0.082,-0.190,-0.141,-0.237,-0.252,0.018
'0:00.960',-0.089,-0.360,-0.270,0.225,0.090,-0.315,-0.046,0.004,-0.002,-0.081,-0.190,-0.140,-0.235,-0.261,0.023
'0:00.961',-0.086,-0.364,-0.278,0.225,0.096,-0.321,-0.048,0.005,0.002,-0.077,-0.188,-0.137,-0.234,-0.274,0.025
'0:00.962',-0.070,-0.343,-0.272,0.206,0.101,-0.307,-0.037,0.011,0.009,-0.070,-0.180,-0.129,-0.234,-0.270,0.023
'0:00.963',-0.056,-0.323,-0.267,0.189,0.105,-0.294,-0.035,0.013,0.011,-0.069,-0.177,-0.126,-0.235,-0.267,0.022
'0:00.964',-0.060,-0.321,-0.259,0.190,0.100,-0.289,-0.039,0.011,0.007,-0.071,-0.179,-0.128,-0.236,-0.265,0.021
'0:00.965',-0.070,-0.323,-0.253,0.196,0.091,-0.287,-0.043,0.007,0.003,-0.072,-0.180,-0.126,-0.232,-0.263,0.018
'0:00.966',-0.083,-0.338,-0.254,0.209,0.086,-0.296,-0.051,-0.002,-0.003,-0.079,-0.185,-0.132,-0.234,-0.266,0.018
'0:00.967',-0.090,-0.344,-0.253,0.217,0.082,-0.298,-0.050,-0.004,-0.005,-0.080,-0.188,-0.137,-0.235,-0.261,0.018
'0:00.968',-0.086,-0.344,-0.258,0.215,0.086,-0.301,-0.051,-0.002,-0.005,-0.080,-0.188,-0.137,-0.233,-0.262,0.021
'0:00.969',-0.085,-0.344,-0.259,0.214,0.087,-0.301,-0.053,-0.006,-0.007,-0.083,-0.189,-0.139,-0.234,-0.265,0.021
'0:00.970',-0.086,-0.337,-0.251,0.211,0.083,-0.294,-0.057,-0.011,-0.008,-0.081,-0.187,-0.136,-0.231,-0.255,0.018
'0:00.971',-0.086,-0.335,-0.248,0.210,0.081,-0.291,-0.058,-0.006,-0.008,-0.082,-0.189,-0.136,-0.231,-0.249,0.017
'0:00.972',-0.087,-0.333,-0.244,0.210,0.079,-0.288,-0.056,-0.006,-0.009,-0.083,-0.189,-0.136,-0.231,-0.251,0.018
'0:00.973',-0.084,-0.330,-0.245,0.206,0.081,-0.287,-0.052,-0.006,-0.009,-0.083,-0.190,-0.137,-0.230,-0.248,0.019
'0:00.974',-0.078,-0.331,-0.252,0.204,0.087,-0.291,-0.056,-0.006,-0.011,-0.085,-0.193,-0.139,-0.229,-0.249,0.022
'0:00.975',-0.077,-0.334,-0.256,0.205,0.089,-0.294,-0.057,-0.010,-0.013,-0.087,-0.195,-0.141,-0.229,-0.252,0.026
'0:00.976',-0.083,-0.341,-0.257,0.211,0.087,-0.298,-0.056,-0.012,-0.011,-0.088,-0.196,-0.144,-0.233,-0.259,0.029
'0:00.977',-0.086,-0.346,-0.261,0.215,0.088,-0.303,-0.053,-0.006,-0.009,-0.087,-0.192,-0.139,-0.229,-0.260,0.029
'0:00.978',-0.083,-0.350,-0.267,0.216,0.092,-0.308,-0.051,-0.004,-0.007,-0.083,-0.189,-0.135,-0.226,-0.257,0.029
'0:00.979',-0.086,-0.354,-0.268,0.220,0.091,-0.311,-0.050,-0.006,-0.006,-0.082,-0.189,-0.136,-0.227,-0.260,0.030
'0:00.980',-0.079,-0.349,-0.270,0.213,0.096,-0.309,-0.049,-0.007,-0.007,-0.085,-0.191,-0.138,-0.230,-0.265,0.033
'0:00.981',-0.070,-0.345,-0.274,0.207,0.102,-0.309,-0.051,-0.004,-0.007,-0.084,-0.189,-0.136,-0.230,-0.270,0.035
'0:00.982',-0.073,-0.344,-0.270,0.208,0.099,-0.307,-0.044,0.004,-0.003,-0.079,-0.182,-0.131,-0.229,-0.267,0.033
'0:00.983',-0.081,-0.352,-0.270,0.216,0.095,-0.311,-0.042,0.002,-0.005,-0.080,-0.183,-0.131,-0.229,-0.267,0.032
'0:00.984',-0.085,-0.354,-0.269,0.219,0.092,-0.311,-0.049,-0.004,-0.009,-0.082,-0.182,-0.128,-0.226,-0.266,0.028
'0:00.985',-0.074,-0.337,-0.263,0.205,0.094,-0.299,-0.046,-0.004,-0.007,-0.078,-0.181,-0.123,-0.225,-0.263,0.025
'0:00.986',-0.065,-0.331,-0.266,0.198,0.101,-0.298,-0.044,-0.002,-0.005,-0.076,-0.180,-0.118,-0.223,-0.265,0.025
'0:00.987',-0.066,-0.333,-0.267,0.200,0.101,-0.300,-0.049,-0.004,-0.009,-0.079,-0.182,-0.120,-0.222,-0.263,0.025
'0:00.988',-0.074,-0.336,-0.261,0.205,0.093,-0.298,-0.052,-0.008,-0.013,-0.084,-0.186,-0.129,-0.227,-0.261,0.025
'0:00.989',-0.074,-0.338,-0.263,0.206,0.094,-0.300,-0.050,-0.006,-0.013,-0.085,-0.187,-0.129,-0.228,-0.262,0.025
'0:00.990',-0.072,-0.331,-0.258,0.201,0.093,-0.294,-0.050,-0.009,-0.017,-0.086,-0.189,-0.127,-0.226,-0.259,0.024
'0:00.991',-0.073,-0.323,-0.249,0.198,0.088,-0.286,-0.051,-0.012,-0.018,-0.087,-0.190,-0.127,-0.226,-0.251,0.022
'0:00.992',-0.074,-0.326,-0.250,0.200,0.088,-0.288,-0.054,-0.013,-0.018,-0.087,-0.191,-0.128,-0.225,-0.246,0.023
'0:00.993',-0.079,-0.332,-0.252,0.205,0.086,-0.292,-0.051,-0.011,-0.018,-0.087,-0.192,-0.128,-0.227,-0.246,0.023
'0:00.994',-0.081,-0.336,-0.254,0.208,0.087,-0.295,-0.051,-0.014,-0.021,-0.092,-0.198,-0.136,-0.231,-0.253,0.025
'0:00.995',-0.082,-0.344,-0.262,0.213,0.090,-0.303,-0.055,-0.018,-0.024,-0.094,-0.199,-0.138,-0.233,-0.264,0.028
'0:00.996',-0.080,-0.349,-0.269,0.214,0.095,-0.309,-0.050,-0.011,-0.017,-0.091,-0.195,-0.133,-0.230,-0.264,0.030
'0:00.997',-0.075,-0.344,-0.269,0.209,0.097,-0.306,-0.050,-0.010,-0.018,-0.092,-0.197,-0.136,-0.230,-0.261,0.032
'0:00.998',-0.079,-0.336,-0.258,0.207,0.089,-0.297,-0.055,-0.017,-0.025,-0.094,-0.200,-0.139,-0.231,-0.259,0.032
'0:00.999',-0.087,-0.345,-0.258,0.216,0.086,-0.301,-0.059,-0.019,-0.026,-0.096,-0.200,-0.140,-0.231,-0.259,0.033
'0:01.000',-0.086,-0.356,-0.270,0.221,0.092,-0.313,-0.055,-0.016,-0.023,-0.095,-0.198,-0.139,-0.232,-0.264,0.034
'0:01.001',-0.086,-0.359,-0.274,0.222,0.095,-0.317,-0.050,-0.009,-0.019,-0.092,-0.196,-0.138,-0.230,-0.266,0.035
'0:01.002',-0.092,-0.360,-0.268,0.227,0.088,-0.314,-0.052,-0.013,-0.021,-0.091,-0.193,-0.136,-0.229,-0.266,0.035
'0:01.003',-0.095,-0.361,-0.266,0.228,0.086,-0.313,-0.049,-0.016,-0.024,-0.093,-0.192,-0.134,-0.230,-0.270,0.032
'0:01.004',-0.095,-0.353,-0.258,0.224,0.082,-0.306,-0.051,-0.014,-0.025,-0.092,-0.192,-0.137,-0.233,-0.266,0.032
'0:01.005',-0.090,-0.345,-0.255,0.217,0.083,-0.299,-0.051,-0.015,-0.025,-0.090,-0.188,-0.134,-0.233,-0.261,0.028
'0:01.006',-0.080,-0.344,-0.264,0.211,0.092,-0.304,-0.049,-0.013,-0.022,-0.091,-0.190,-0.129,-0.232,-0.264,0.028
'0:01.007',-0.081,-0.341,-0.260,0.210,0.089,-0.300,-0.052,-0.016,-0.025,-0.092,-0.190,-0.129,-0.232,-0.264,0.027
'0:01.008',-0.086,-0.352,-0.266,0.218,0.090,-0.308,-0.050,-0.017,-0.024,-0.091,-0.188,-0.129,-0.231,-0.271,0.027
'0:01.009',-0.090,-0.349,-0.259,0.220,0.085,-0.303,-0.051,-0.016,-0.025,-0.091,-0.191,-0.130,-0.231,-0.271,0.027
'0:01.010',-0.089,-0.334,-0.244,0.210,0.078,-0.288,-0.056,-0.022,-0.031,-0.097,-0.194,-0.133,-0.230,-0.255,0.025
'0:01.011',-0.085,-0.335,-0.249,0.209,0.083,-0.292,-0.060,-0.025,-0.034,-0.098,-0.195,-0.132,-0.228,-0.253,0.027
'0:01.012',-0.089,-0.338,-0.249,0.213,0.081,-0.293,-0.060,-0.027,-0.035,-0.098,-0.192,-0.133,-0.229,-0.253,0.026
'0:01.013',-0.096,-0.342,-0.246,0.218,0.075,-0.293,-0.059,-0.029,-0.036,-0.099,-0.195,-0.135,-0.230,-0.254,0.028
'0:01.014',-0.093,-0.348,-0.254,0.221,0.081,-0.301,-0.054,-0.021,-0.030,-0.096,-0.194,-0.133,-0.231,-0.265,0.030
'0:01.015',-0.096,-0.358,-0.262,0.227,0.083,-0.310,-0.053,-0.021,-0.029,-0.094,-0.192,-0.133,-0.231,-0.268,0.033
'0:01.016',-0.097,-0.357,-0.261,0.227,0.082,-0.309,-0.058,-0.024,-0.031,-0.096,-0.194,-0.134,-0.230,-0.268,0.035
'0:01.017',-0.088,-0.351,-0.262,0.220,0.087,-0.306,-0.051,-0.018,-0.027,-0.093,-0.190,-0.133,-0.232,-0.266,0.033
'0:01.018',-0.089,-0.350,-0.260,0.220,0.085,-0.305,-0.051,-0.021,-0.031,-0.093,-0.193,-0.133,-0.231,-0.265,0.034
'0:01.019',-0.087,-0.354,-0.267,0.221,0.090,-0.310,-0.056,-0.021,-0.030,-0.095,-0.193,-0.132,-0.231,-0.268,0.035
'0:01.020',-0.085,-0.358,-0.273,0.221,0.094,-0.315,-0.049,-0.018,-0.026,-0.093,-0.191,-0.131,-0.233,-0.270,0.035
'0:01.021',-0.090,-0.363,-0.273,0.227,0.091,-0.318,-0.047,-0.018,-0.026,-0.094,-0.194,-0.132,-0.234,-0.274,0.038
'0:01.022',-0.093,-0.371,-0.278,0.233,0.092,-0.325,-0.047,-0.018,-0.026,-0.095,-0.194,-0.132,-0.235,-0.277,0.038
'0:01.023',-0.093,-0.369,-0.276,0.231,0.092,-0.323,-0.051,-0.022,-0.031,-0.099,-0.197,-0.135,-0.235,-0.280,0.040
'0:01.024',-0.089,-0.358,-0.269,0.224,0.090,-0.314,-0.051,-0.019,-0.029,-0.096,-0.194,-0.132,-0.234,-0.272,0.037
'0:01.025',-0.091,-0.350,-0.258,0.221,0.084,-0.304,-0.048,-0.020,-0.030,-0.096,-0.193,-0.132,-0.235,-0.258,0.035
'0:01.026',-0.096,-0.348,-0.252,0.222,0.079,-0.300,-0.052,-0.025,-0.034,-0.101,-0.197,-0.135,-0.237,-0.258,0.035
'0:01.027',-0.097,-0.347,-0.250,0.222,0.077,-0.298,-0.052,-0.022,-0.032,-0.098,-0.193,-0.131,-0.237,-0.260,0.034
'0:01.028',-0.095,-0.350,-0.255,0.222,0.081,-0.303,-0.052,-0.024,-0.033,-0.101,-0.193,-0.132,-0.237,-0.263,0.035
'0:01.029',-0.097,-0.350,-0.253,0.224,0.079,-0.301,-0.054,-0.028,-0.037,-0.104,-0.196,-0.137,-0.240,-0.261,0.035
'0:01.030',-0.095,-0.342,-0.246,0.217,0.076,-0.294,-0.056,-0.028,-0.038,-0.102,-0.194,-0.135,-0.239,-0.247,0.030
'0:01.031',-0.086,-0.334,-0.247,0.209,0.081,-0.290,-0.053,-0.026,-0.035,-0.099,-0.189,-0.130,-0.239,-0.244,0.025
'0:01.032',-0.101,-0.338,-0.236,0.219,0.069,-0.287,-0.058,-0.032,-0.042,-0.104,-0.194,-0.136,-0.240,-0.244,0.025
'0:01.033',-0.104,-0.341,-0.235,0.223,0.066,-0.288,-0.069,-0.042,-0.048,-0.111,-0.200,-0.141,-0.239,-0.244,0.028
'0:01.034',-0.106,-0.350,-0.243,0.228,0.069,-0.296,-0.062,-0.037,-0.045,-0.107,-0.198,-0.141,-0.242,-0.257,0.030
'0:01.035',-0.103,-0.352,-0.248,0.228,0.072,-0.300,-0.059,-0.035,-0.043,-0.106,-0.196,-0.141,-0.242,-0.258,0.034
'0:01.036',-0.095,-0.346,-0.251,0.220,0.079,-0.298,-0.057,-0.030,-0.039,-0.103,-0.195,-0.139,-0.240,-0.253,0.034
'0:01.037',-0.100,-0.348,-0.247,0.224,0.073,-0.298,-0.056,-0.028,-0.038,-0.104,-0.197,-0.142,-0.241,-0.252,0.035
'0:01.038',-0.101,-0.344,-0.243,0.222,0.071,-0.293,-0.059,-0.032,-0.040,-0.104,-0.196,-0.141,-0.240,-0.251,0.035
'0:01.039',-0.105,-0.346,-0.240,0.226,0.068,-0.293,-0.053,-0.028,-0.041,-0.103,-0.196,-0.142,-0.242,-0.253,0.033
'0:01.040',-0.102,-0.349,-0.246,0.226,0.072,-0.297,-0.053,-0.032,-0.044,-0.109,-0.200,-0.148,-0.246,-0.257,0.034
'0:01.041',-0.091,-0.346,-0.255,0.218,0.083,-0.301,-0.053,-0.029,-0.040,-0.105,-0.196,-0.143,-0.244,-0.264,0.035
'0:01.042',-0.090,-0.351,-0.261,0.221,0.086,-0.306,-0.049,-0.021,-0.033,-0.099,-0.191,-0.141,-0.242,-0.269,0.035
'0:01.043',-0.089,-0.349,-0.261,0.219,0.086,-0.305,-0.051,-0.023,-0.034,-0.099,-0.189,-0.139,-0.240,-0.262,0.035
'0:01.044',-0.092,-0.343,-0.251,0.217,0.080,-0.297,-0.055,-0.030,-0.040,-0.101,-0.191,-0.137,-0.238,-0.255,0.033
'0:01.045',-0.098,-0.350,-0.252,0.224,0.077,-0.301,-0.056,-0.031,-0.041,-0.101,-0.192,-0.138,-0.240,-0.260,0.032
'0:01.046',-0.093,-0.349,-0.255,0.221,0.081,-0.302,-0.056,-0.027,-0.040,-0.099,-0.187,-0.134,-0.238,-0.263,0.033
'0:01.047',-0.096,-0.336,-0.239,0.215,0.071,-0.287,-0.059,-0.036,-0.046,-0.105,-0.193,-0.140,-0.238,-0.256,0.034
'0:01.048',-0.097,-0.334,-0.236,0.215,0.070,-0.285,-0.060,-0.036,-0.046,-0.106,-0.197,-0.143,-0.240,-0.252,0.035
'0:01.049',-0.093,-0.333,-0.238,0.212,0.073,-0.285,-0.055,-0.030,-0.043,-0.103,-0.192,-0.139,-0.238,-0.248,0.035
'0:01.050',-0.096,-0.330,-0.234,0.213,0.069,-0.282,-0.056,-0.035,-0.045,-0.103,-0.191,-0.137,-0.237,-0.254,0.034
'0:01.051',-0.102,-0.330,-0.227,0.216,0.062,-0.279,-0.061,-0.035,-0.045,-0.103,-0.192,-0.136,-0.237,-0.248,0.033
'0:01.052',-0.102,-0.328,-0.225,0.214,0.062,-0.276,-0.058,-0.033,-0.046,-0.105,-0.193,-0.136,-0.235,-0.237,0.032
'0:01.053',-0.092,-0.327,-0.234,0.209,0.071,-0.280,-0.053,-0.029,-0.042,-0.102,-0.192,-0.134,-0.236,-0.242,0.030
'0:01.054',-0.091,-0.337,-0.245,0.213,0.077,-0.291,-0.054,-0.032,-0.043,-0.103,-0.197,-0.138,-0.239,-0.251,0.032
'0:01.055',-0.089,-0.339,-0.249,0.214,0.081,-0.294,-0.052,-0.033,-0.045,-0.104,-0.199,-0.140,-0.239,-0.258,0.034
'0:01.056',-0.084,-0.336,-0.252,0.209,0.085,-0.294,-0.051,-0.030,-0.042,-0.104,-0.197,-0.137,-0.239,-0.260,0.035
'0:01.057',-0.086,-0.345,-0.260,0.215,0.087,-0.302,-0.052,-0.026,-0.039,-0.102,-0.195,-0.135,-0.238,-0.268,0.035
'0:01.058',-0.091,-0.351,-0.260,0.221,0.085,-0.305,-0.051,-0.026,-0.038,-0.101,-0.195,-0.135,-0.236,-0.266,0.033
'0:01.059',-0.095,-0.352,-0.258,0.224,0.082,-0.305,-0.052,-0.031,-0.044,-0.108,-0.201,-0.141,-0.239,-0.262,0.035
'0:01.060',-0.101,-0.344,-0.243,0.222,0.071,-0.293,-0.053,-0.032,-0.048,-0.112,-0.204,-0.146,-0.242,-0.263,0.038
'0:01.061',-0.098,-0.341,-0.242,0.220,0.072,-0.292,-0.053,-0.030,-0.044,-0.111,-0.205,-0.145,-0.241,-0.265,0.040
'0:01.062',-0.095,-0.355,-0.260,0.225,0.083,-0.307,-0.050,-0.026,-0.043,-0.107,-0.202,-0.141,-0.240,-0.276,0.042
'0:01.063',-0.091,-0.353,-0.261,0.222,0.085,-0.307,-0.050,-0.025,-0.040,-0.104,-0.198,-0.139,-0.240,-0.276,0.040
'0:01.064',-0.092,-0.346,-0.254,0.218,0.081,-0.299,-0.056,-0.032,-0.045,-0.110,-0.205,-0.145,-0.242,-0.270,0.037
'0:01.065',-0.097,-0.335,-0.238,0.215,0.071,-0.286,-0.056,-0.034,-0.050,-0.113,-0.209,-0.148,-0.246,-0.265,0.035
'0:01.066',-0.088,-0.319,-0.230,0.203,0.071,-0.275,-0.053,-0.034,-0.046,-0.109,-0.206,-0.144,-0.246,-0.254,0.033
'0:01.067',-0.087,-0.330,-0.241,0.208,0.077,-0.285,-0.052,-0.032,-0.046,-0.107,-0.203,-0.140,-0.243,-0.256,0.034
'0:01.068',-0.095,-0.348,-0.254,0.222,0.080,-0.301,-0.049,-0.027,-0.043,-0.104,-0.199,-0.137,-0.244,-0.268,0.035
'0:01.069',-0.099,-0.343,-0.244,0.221,0.073,-0.293,-0.054,-0.035,-0.046,-0.108,-0.202,-0.143,-0.248,-0.265,0.035
