'Elapsed time','i','ii','iii','avr','avl','avf','v1','v2','v3','v4','v5','v6','vx','vy','vz'
'hh:mm:ss.mmm','mV','mV','mV','mV','mV','mV','mV','mV','mV','mV','mV','mV','mV','mV','mV'
'0:00.000',0.145,0.195,0.050,-0.171,0.048,0.122,0.295,0.127,0.314,0.284,0.263,0.209,-0.089,-0.292,-0.077
'0:00.001',0.145,0.199,0.053,-0.172,0.045,0.126,0.299,0.125,0.314,0.284,0.261,0.210,-0.089,-0.289,-0.076
'0:00.002',0.145,0.198,0.052,-0.172,0.046,0.125,0.295,0.122,0.311,0.281,0.260,0.208,-0.088,-0.288,-0.075
'0:00.003',0.146,0.199,0.052,-0.172,0.046,0.126,0.292,0.117,0.308,0.278,0.256,0.205,-0.089,-0.287,-0.076
'0:00.004',0.144,0.197,0.053,-0.171,0.045,0.125,0.292,0.122,0.313,0.284,0.263,0.209,-0.086,-0.287,-0.076
'0:00.005',0.145,0.199,0.053,-0.172,0.045,0.126,0.291,0.119,0.310,0.280,0.258,0.205,-0.086,-0.284,-0.073
'0:00.006',0.147,0.203,0.056,-0.175,0.046,0.129,0.290,0.114,0.305,0.270,0.252,0.200,-0.090,-0.280,-0.073
'0:00.007',0.147,0.205,0.059,-0.177,0.044,0.132,0.287,0.116,0.307,0.271,0.255,0.202,-0.089,-0.279,-0.074
'0:00.008',0.149,0.206,0.058,-0.178,0.045,0.132,0.288,0.115,0.306,0.271,0.252,0.199,-0.092,-0.278,-0.074
'0:00.009',0.143,0.200,0.056,-0.172,0.043,0.128,0.294,0.116,0.304,0.270,0.252,0.198,-0.097,-0.278,-0.077
'0:00.010',0.144,0.197,0.052,-0.171,0.046,0.124,0.294,0.118,0.308,0.276,0.256,0.204,-0.093,-0.285,-0.076
'0:00.011',0.150,0.198,0.048,-0.174,0.051,0.123,0.294,0.122,0.311,0.281,0.260,0.206,-0.090,-0.289,-0.074
'0:00.012',0.148,0.198,0.050,-0.173,0.049,0.123,0.298,0.121,0.310,0.283,0.262,0.209,-0.089,-0.290,-0.072
'0:00.013',0.145,0.199,0.053,-0.172,0.045,0.126,0.298,0.122,0.312,0.285,0.262,0.210,-0.088,-0.290,-0.072
'0:00.014',0.146,0.198,0.051,-0.172,0.047,0.124,0.297,0.127,0.314,0.286,0.261,0.208,-0.088,-0.291,-0.075
'0:00.015',0.144,0.195,0.051,-0.170,0.046,0.122,0.297,0.123,0.308,0.282,0.256,0.208,-0.091,-0.298,-0.076
'0:00.016',0.139,0.190,0.051,-0.164,0.043,0.120,0.299,0.124,0.310,0.286,0.259,0.210,-0.089,-0.300,-0.074
'0:00.017',0.139,0.186,0.048,-0.163,0.045,0.117,0.301,0.127,0.312,0.289,0.261,0.216,-0.087,-0.305,-0.075
'0:00.018',0.140,0.187,0.048,-0.164,0.045,0.117,0.300,0.126,0.310,0.289,0.261,0.216,-0.088,-0.305,-0.073
'0:00.019',0.138,0.191,0.053,-0.164,0.042,0.122,0.299,0.122,0.309,0.287,0.259,0.213,-0.088,-0.301,-0.070
'0:00.020',0.137,0.194,0.057,-0.166,0.040,0.126,0.294,0.115,0.304,0.280,0.256,0.208,-0.089,-0.296,-0.070
'0:00.021',0.139,0.196,0.058,-0.168,0.041,0.127,0.289,0.112,0.302,0.277,0.255,0.207,-0.089,-0.290,-0.068
'0:00.022',0.139,0.198,0.059,-0.168,0.040,0.128,0.287,0.108,0.301,0.276,0.254,0.205,-0.090,-0.289,-0.070
'0:00.023',0.139,0.199,0.060,-0.169,0.039,0.129,0.288,0.111,0.303,0.277,0.255,0.204,-0.089,-0.284,-0.070
'0:00.024',0.138,0.197,0.059,-0.167,0.039,0.128,0.291,0.116,0.307,0.277,0.255,0.207,-0.088,-0.283,-0.068
'0:00.025',0.137,0.197,0.060,-0.167,0.038,0.129,0.288,0.112,0.305,0.276,0.254,0.204,-0.089,-0.281,-0.068
'0:00.026',0.141,0.205,0.065,-0.173,0.038,0.135,0.284,0.106,0.301,0.272,0.252,0.203,-0.088,-0.275,-0.069
'0:00.027',0.145,0.210,0.065,-0.178,0.040,0.138,0.284,0.104,0.297,0.268,0.252,0.203,-0.086,-0.274,-0.068
'0:00.028',0.150,0.212,0.061,-0.181,0.044,0.137,0.282,0.105,0.298,0.268,0.252,0.202,-0.088,-0.274,-0.068
'0:00.029',0.155,0.214,0.059,-0.185,0.048,0.137,0.285,0.107,0.302,0.275,0.256,0.207,-0.087,-0.280,-0.067
'0:00.030',0.152,0.210,0.058,-0.181,0.047,0.134,0.290,0.117,0.307,0.281,0.260,0.212,-0.086,-0.282,-0.065
'0:00.031',0.151,0.207,0.056,-0.179,0.048,0.132,0.288,0.117,0.305,0.281,0.258,0.211,-0.087,-0.284,-0.065
'0:00.032',0.154,0.203,0.048,-0.178,0.053,0.125,0.287,0.116,0.306,0.284,0.261,0.211,-0.085,-0.291,-0.066
'0:00.033',0.153,0.197,0.043,-0.175,0.055,0.120,0.289,0.116,0.304,0.282,0.259,0.209,-0.087,-0.293,-0.066
'0:00.034',0.152,0.194,0.041,-0.173,0.056,0.117,0.287,0.105,0.299,0.281,0.257,0.210,-0.086,-0.294,-0.064
'0:00.035',0.152,0.190,0.038,-0.172,0.057,0.114,0.290,0.110,0.301,0.282,0.257,0.211,-0.086,-0.298,-0.066
'0:00.036',0.151,0.190,0.038,-0.171,0.057,0.114,0.293,0.117,0.302,0.284,0.256,0.212,-0.089,-0.299,-0.066
'0:00.037',0.147,0.183,0.036,-0.166,0.056,0.110,0.294,0.118,0.303,0.290,0.260,0.217,-0.086,-0.301,-0.066
'0:00.038',0.145,0.181,0.037,-0.164,0.054,0.109,0.294,0.119,0.302,0.289,0.259,0.216,-0.086,-0.303,-0.066
'0:00.039',0.145,0.183,0.038,-0.164,0.053,0.111,0.292,0.114,0.299,0.284,0.255,0.210,-0.087,-0.299,-0.064
'0:00.040',0.147,0.190,0.042,-0.169,0.052,0.116,0.287,0.113,0.302,0.284,0.258,0.211,-0.085,-0.290,-0.067
'0:00.041',0.149,0.196,0.046,-0.172,0.051,0.121,0.285,0.114,0.303,0.286,0.260,0.213,-0.084,-0.286,-0.068
'0:00.042',0.149,0.196,0.047,-0.173,0.051,0.121,0.288,0.112,0.297,0.278,0.255,0.208,-0.087,-0.288,-0.068
'0:00.043',0.149,0.197,0.047,-0.173,0.051,0.122,0.282,0.107,0.295,0.277,0.254,0.207,-0.088,-0.292,-0.067
'0:00.044',0.146,0.193,0.047,-0.170,0.050,0.120,0.282,0.104,0.295,0.275,0.253,0.205,-0.091,-0.290,-0.067
'0:00.045',0.148,0.194,0.045,-0.172,0.051,0.119,0.283,0.103,0.294,0.273,0.253,0.204,-0.090,-0.287,-0.067
'0:00.046',0.150,0.199,0.049,-0.174,0.051,0.123,0.280,0.103,0.294,0.270,0.254,0.203,-0.088,-0.286,-0.066
'0:00.047',0.153,0.206,0.053,-0.180,0.050,0.130,0.284,0.104,0.293,0.267,0.252,0.202,-0.091,-0.280,-0.066
'0:00.048',0.158,0.209,0.052,-0.184,0.052,0.131,0.284,0.107,0.295,0.269,0.252,0.203,-0.091,-0.284,-0.069
'0:00.049',0.161,0.207,0.047,-0.184,0.057,0.127,0.285,0.109,0.293,0.270,0.254,0.205,-0.090,-0.291,-0.068
'0:00.050',0.160,0.206,0.046,-0.183,0.057,0.127,0.288,0.112,0.295,0.277,0.258,0.211,-0.088,-0.291,-0.067
'0:00.051',0.155,0.203,0.048,-0.179,0.053,0.126,0.290,0.111,0.296,0.281,0.260,0.211,-0.089,-0.291,-0.068
'0:00.052',0.159,0.198,0.038,-0.178,0.060,0.118,0.294,0.111,0.295,0.276,0.256,0.209,-0.092,-0.294,-0.067
'0:00.053',0.164,0.197,0.033,-0.180,0.066,0.115,0.292,0.113,0.294,0.275,0.255,0.210,-0.091,-0.300,-0.068
'0:00.054',0.166,0.203,0.036,-0.185,0.065,0.119,0.290,0.113,0.296,0.277,0.257,0.211,-0.091,-0.301,-0.070
'0:00.055',0.155,0.194,0.038,-0.175,0.059,0.116,0.294,0.114,0.297,0.277,0.257,0.213,-0.091,-0.302,-0.070
'0:00.056',0.150,0.188,0.037,-0.170,0.056,0.113,0.295,0.115,0.296,0.280,0.256,0.214,-0.093,-0.302,-0.068
'0:00.057',0.159,0.195,0.035,-0.177,0.061,0.115,0.298,0.120,0.302,0.286,0.260,0.220,-0.090,-0.301,-0.065
'0:00.058',0.154,0.192,0.037,-0.173,0.058,0.115,0.297,0.119,0.301,0.284,0.257,0.221,-0.086,-0.304,-0.061
'0:00.059',0.148,0.192,0.043,-0.171,0.052,0.117,0.295,0.111,0.296,0.278,0.254,0.215,-0.088,-0.303,-0.060
'0:00.060',0.153,0.204,0.051,-0.178,0.051,0.127,0.295,0.119,0.301,0.279,0.259,0.214,-0.088,-0.292,-0.065
'0:00.061',0.153,0.208,0.055,-0.180,0.049,0.132,0.291,0.114,0.299,0.278,0.257,0.213,-0.088,-0.289,-0.067
'0:00.062',0.152,0.206,0.053,-0.179,0.050,0.130,0.294,0.110,0.294,0.275,0.253,0.209,-0.089,-0.291,-0.066
'0:00.063',0.145,0.209,0.064,-0.177,0.040,0.137,0.296,0.115,0.299,0.277,0.255,0.212,-0.091,-0.287,-0.067
'0:00.064',0.140,0.203,0.063,-0.172,0.038,0.133,0.292,0.106,0.294,0.274,0.251,0.211,-0.092,-0.285,-0.062
'0:00.065',0.146,0.200,0.053,-0.173,0.046,0.127,0.288,0.105,0.290,0.269,0.248,0.206,-0.093,-0.283,-0.061
'0:00.066',0.155,0.209,0.054,-0.183,0.051,0.132,0.280,0.104,0.290,0.266,0.246,0.202,-0.093,-0.279,-0.064
'0:00.067',0.176,0.217,0.041,-0.197,0.067,0.129,0.279,0.100,0.284,0.257,0.240,0.195,-0.093,-0.274,-0.065
'0:00.068',0.180,0.219,0.038,-0.200,0.070,0.129,0.281,0.100,0.284,0.258,0.238,0.196,-0.095,-0.278,-0.066
'0:00.069',0.169,0.217,0.049,-0.194,0.060,0.133,0.283,0.102,0.286,0.267,0.244,0.202,-0.094,-0.281,-0.068
'0:00.070',0.168,0.213,0.046,-0.191,0.060,0.130,0.287,0.111,0.291,0.272,0.248,0.206,-0.094,-0.286,-0.068
'0:00.071',0.168,0.213,0.045,-0.191,0.061,0.129,0.281,0.113,0.295,0.275,0.250,0.208,-0.092,-0.287,-0.067
'0:00.072',0.166,0.213,0.047,-0.190,0.059,0.130,0.289,0.113,0.294,0.276,0.250,0.208,-0.091,-0.284,-0.067
'0:00.073',0.166,0.209,0.044,-0.188,0.060,0.127,0.293,0.108,0.292,0.276,0.249,0.208,-0.093,-0.286,-0.067
'0:00.074',0.163,0.208,0.046,-0.186,0.059,0.127,0.294,0.110,0.292,0.278,0.249,0.209,-0.092,-0.285,-0.067
'0:00.075',0.162,0.207,0.045,-0.185,0.059,0.126,0.295,0.114,0.293,0.279,0.250,0.212,-0.089,-0.293,-0.068
'0:00.076',0.157,0.199,0.042,-0.178,0.058,0.120,0.288,0.115,0.294,0.281,0.249,0.212,-0.090,-0.303,-0.068
'0:00.077',0.147,0.186,0.039,-0.167,0.053,0.113,0.291,0.116,0.291,0.281,0.248,0.212,-0.090,-0.304,-0.067
'0:00.078',0.145,0.186,0.041,-0.166,0.052,0.114,0.288,0.116,0.292,0.283,0.249,0.213,-0.088,-0.300,-0.067
'0:00.079',0.142,0.189,0.047,-0.166,0.048,0.118,0.288,0.116,0.292,0.281,0.246,0.210,-0.088,-0.296,-0.068
'0:00.080',0.141,0.192,0.050,-0.167,0.045,0.120,0.288,0.110,0.288,0.274,0.242,0.206,-0.092,-0.294,-0.067
'0:00.081',0.142,0.195,0.052,-0.169,0.044,0.123,0.286,0.108,0.288,0.274,0.243,0.207,-0.089,-0.290,-0.067
'0:00.082',0.141,0.193,0.052,-0.167,0.044,0.122,0.283,0.106,0.285,0.271,0.241,0.206,-0.088,-0.287,-0.068
'0:00.083',0.142,0.195,0.052,-0.169,0.044,0.124,0.279,0.102,0.283,0.267,0.238,0.201,-0.091,-0.282,-0.070
'0:00.084',0.139,0.192,0.052,-0.166,0.043,0.122,0.281,0.102,0.284,0.264,0.237,0.200,-0.093,-0.284,-0.070
'0:00.085',0.138,0.193,0.056,-0.166,0.041,0.124,0.281,0.101,0.283,0.262,0.238,0.200,-0.093,-0.283,-0.069
'0:00.086',0.141,0.200,0.059,-0.171,0.042,0.129,0.278,0.101,0.282,0.260,0.235,0.198,-0.093,-0.281,-0.070
'0:00.087',0.146,0.204,0.058,-0.176,0.044,0.132,0.277,0.100,0.284,0.259,0.234,0.196,-0.095,-0.275,-0.070
'0:00.088',0.151,0.211,0.059,-0.181,0.046,0.135,0.277,0.101,0.288,0.262,0.239,0.198,-0.095,-0.272,-0.070
'0:00.089',0.150,0.208,0.058,-0.179,0.046,0.133,0.278,0.106,0.293,0.268,0.245,0.201,-0.096,-0.280,-0.072
'0:00.090',0.148,0.205,0.057,-0.177,0.045,0.131,0.284,0.110,0.296,0.270,0.246,0.205,-0.097,-0.283,-0.071
'0:00.091',0.151,0.205,0.054,-0.178,0.049,0.130,0.287,0.107,0.290,0.266,0.242,0.204,-0.100,-0.286,-0.069
'0:00.092',0.150,0.201,0.051,-0.175,0.050,0.126,0.282,0.107,0.292,0.271,0.245,0.206,-0.098,-0.291,-0.068
'0:00.093',0.139,0.199,0.059,-0.169,0.040,0.129,0.286,0.114,0.296,0.275,0.247,0.210,-0.098,-0.291,-0.070
'0:00.094',0.138,0.198,0.060,-0.168,0.039,0.129,0.290,0.111,0.293,0.270,0.243,0.207,-0.101,-0.289,-0.070
'0:00.095',0.138,0.196,0.058,-0.167,0.040,0.127,0.287,0.113,0.296,0.274,0.244,0.211,-0.098,-0.286,-0.070
'0:00.096',0.134,0.191,0.057,-0.162,0.038,0.123,0.291,0.118,0.298,0.278,0.246,0.213,-0.098,-0.291,-0.070
'0:00.097',0.141,0.185,0.045,-0.163,0.048,0.115,0.287,0.112,0.294,0.278,0.244,0.211,-0.097,-0.293,-0.069
'0:00.098',0.134,0.185,0.052,-0.160,0.041,0.118,0.287,0.116,0.298,0.283,0.249,0.215,-0.094,-0.287,-0.070
'0:00.099',0.132,0.187,0.056,-0.160,0.038,0.121,0.289,0.115,0.297,0.280,0.247,0.211,-0.095,-0.287,-0.070
'0:00.100',0.136,0.195,0.059,-0.166,0.037,0.128,0.289,0.113,0.297,0.281,0.249,0.209,-0.094,-0.285,-0.071
'0:00.101',0.132,0.198,0.066,-0.165,0.033,0.132,0.286,0.113,0.296,0.279,0.249,0.209,-0.093,-0.281,-0.072
'0:00.102',0.133,0.194,0.062,-0.164,0.035,0.128,0.283,0.105,0.286,0.269,0.242,0.204,-0.095,-0.286,-0.069
'0:00.103',0.131,0.193,0.061,-0.162,0.035,0.127,0.284,0.108,0.287,0.269,0.243,0.204,-0.095,-0.288,-0.070
'0:00.104',0.132,0.192,0.060,-0.162,0.035,0.126,0.279,0.110,0.293,0.273,0.248,0.207,-0.092,-0.284,-0.071
'0:00.105',0.137,0.199,0.061,-0.168,0.037,0.130,0.283,0.110,0.291,0.272,0.247,0.205,-0.092,-0.281,-0.072
'0:00.106',0.145,0.205,0.060,-0.176,0.043,0.133,0.284,0.104,0.288,0.264,0.241,0.198,-0.095,-0.277,-0.072
'0:00.107',0.158,0.218,0.061,-0.188,0.048,0.140,0.280,0.103,0.291,0.265,0.245,0.198,-0.093,-0.274,-0.070
'0:00.108',0.158,0.222,0.064,-0.191,0.047,0.143,0.284,0.109,0.296,0.268,0.248,0.201,-0.092,-0.273,-0.072
'0:00.109',0.150,0.213,0.064,-0.182,0.043,0.139,0.285,0.107,0.293,0.269,0.247,0.203,-0.094,-0.277,-0.073
'0:00.110',0.151,0.212,0.061,-0.181,0.044,0.137,0.283,0.110,0.297,0.275,0.251,0.207,-0.093,-0.278,-0.072
'0:00.111',0.153,0.212,0.059,-0.182,0.046,0.136,0.287,0.115,0.301,0.277,0.252,0.208,-0.092,-0.280,-0.071
'0:00.112',0.157,0.210,0.054,-0.184,0.051,0.132,0.290,0.114,0.298,0.276,0.251,0.207,-0.093,-0.288,-0.071
'0:00.113',0.159,0.207,0.049,-0.183,0.054,0.128,0.293,0.117,0.302,0.278,0.252,0.210,-0.092,-0.286,-0.071
'0:00.114',0.160,0.210,0.051,-0.185,0.054,0.131,0.293,0.117,0.305,0.280,0.254,0.210,-0.092,-0.289,-0.070
'0:00.115',0.153,0.206,0.053,-0.180,0.050,0.130,0.293,0.118,0.304,0.281,0.253,0.210,-0.096,-0.294,-0.072
'0:00.116',0.144,0.197,0.052,-0.171,0.045,0.124,0.299,0.121,0.305,0.284,0.255,0.215,-0.095,-0.291,-0.072
'0:00.117',0.149,0.197,0.047,-0.173,0.051,0.121,0.300,0.123,0.307,0.286,0.254,0.216,-0.095,-0.295,-0.070
'0:00.118',0.146,0.194,0.048,-0.171,0.049,0.121,0.295,0.123,0.304,0.286,0.255,0.216,-0.093,-0.293,-0.069
'0:00.119',0.139,0.193,0.054,-0.166,0.043,0.123,0.291,0.118,0.301,0.282,0.252,0.212,-0.095,-0.287,-0.070
'0:00.120',0.138,0.193,0.055,-0.165,0.041,0.124,0.293,0.115,0.297,0.275,0.246,0.207,-0.099,-0.286,-0.072
'0:00.121',0.142,0.198,0.056,-0.170,0.043,0.127,0.293,0.115,0.298,0.276,0.249,0.209,-0.095,-0.282,-0.074
'0:00.122',0.145,0.204,0.059,-0.175,0.043,0.132,0.288,0.114,0.297,0.275,0.249,0.209,-0.094,-0.280,-0.072
'0:00.123',0.143,0.203,0.059,-0.173,0.042,0.131,0.288,0.114,0.297,0.274,0.248,0.209,-0.094,-0.282,-0.072
'0:00.124',0.144,0.205,0.060,-0.175,0.042,0.133,0.290,0.115,0.302,0.279,0.252,0.212,-0.093,-0.284,-0.074
'0:00.125',0.150,0.212,0.062,-0.182,0.044,0.138,0.290,0.115,0.302,0.276,0.250,0.210,-0.093,-0.279,-0.072
'0:00.126',0.156,0.219,0.063,-0.188,0.046,0.141,0.287,0.114,0.302,0.272,0.248,0.206,-0.095,-0.276,-0.072
'0:00.127',0.160,0.227,0.067,-0.194,0.046,0.147,0.287,0.113,0.303,0.274,0.251,0.208,-0.093,-0.274,-0.075
'0:00.128',0.160,0.225,0.065,-0.193,0.047,0.145,0.286,0.113,0.303,0.275,0.251,0.208,-0.093,-0.277,-0.075
'0:00.129',0.160,0.223,0.063,-0.192,0.048,0.143,0.289,0.117,0.308,0.279,0.253,0.211,-0.094,-0.283,-0.076
'0:00.130',0.165,0.225,0.060,-0.195,0.052,0.142,0.294,0.122,0.312,0.283,0.258,0.219,-0.090,-0.287,-0.074
'0:00.131',0.162,0.220,0.058,-0.191,0.051,0.139,0.297,0.126,0.315,0.285,0.260,0.220,-0.091,-0.285,-0.074
'0:00.132',0.158,0.218,0.060,-0.188,0.049,0.139,0.298,0.128,0.320,0.289,0.264,0.224,-0.090,-0.282,-0.073
'0:00.133',0.158,0.214,0.058,-0.186,0.050,0.136,0.296,0.127,0.317,0.287,0.263,0.222,-0.092,-0.285,-0.072
'0:00.134',0.153,0.215,0.061,-0.184,0.046,0.139,0.296,0.127,0.316,0.287,0.265,0.221,-0.090,-0.284,-0.073
'0:00.135',0.153,0.213,0.060,-0.184,0.046,0.137,0.300,0.130,0.317,0.290,0.265,0.225,-0.089,-0.287,-0.072
'0:00.136',0.152,0.205,0.053,-0.179,0.050,0.129,0.301,0.129,0.314,0.289,0.261,0.224,-0.093,-0.296,-0.074
'0:00.137',0.147,0.201,0.053,-0.174,0.046,0.127,0.300,0.130,0.316,0.294,0.264,0.227,-0.090,-0.297,-0.073
'0:00.138',0.144,0.198,0.052,-0.171,0.045,0.125,0.302,0.130,0.316,0.294,0.263,0.228,-0.089,-0.297,-0.073
'0:00.139',0.145,0.200,0.054,-0.172,0.045,0.127,0.302,0.126,0.313,0.290,0.262,0.222,-0.091,-0.292,-0.076
'0:00.140',0.148,0.207,0.059,-0.178,0.044,0.134,0.295,0.124,0.312,0.290,0.262,0.220,-0.089,-0.283,-0.077
'0:00.141',0.149,0.209,0.060,-0.179,0.044,0.135,0.295,0.122,0.310,0.288,0.260,0.220,-0.089,-0.284,-0.077
'0:00.142',0.149,0.213,0.064,-0.181,0.043,0.138,0.297,0.122,0.308,0.286,0.259,0.218,-0.089,-0.281,-0.076
'0:00.143',0.154,0.214,0.060,-0.184,0.046,0.138,0.293,0.118,0.308,0.286,0.259,0.219,-0.087,-0.278,-0.074
'0:00.144',0.148,0.211,0.062,-0.180,0.043,0.137,0.293,0.118,0.308,0.285,0.261,0.217,-0.089,-0.282,-0.075
'0:00.145',0.144,0.212,0.068,-0.178,0.038,0.141,0.291,0.118,0.307,0.281,0.259,0.214,-0.090,-0.277,-0.074
'0:00.146',0.157,0.222,0.066,-0.190,0.045,0.144,0.287,0.113,0.302,0.276,0.255,0.211,-0.090,-0.273,-0.074
'0:00.147',0.167,0.232,0.064,-0.200,0.051,0.148,0.288,0.117,0.305,0.275,0.256,0.210,-0.089,-0.273,-0.075
'0:00.148',0.172,0.236,0.065,-0.204,0.053,0.150,0.288,0.116,0.309,0.280,0.259,0.213,-0.089,-0.271,-0.075
'0:00.149',0.169,0.236,0.067,-0.203,0.051,0.151,0.291,0.119,0.311,0.283,0.263,0.217,-0.088,-0.270,-0.076
'0:00.150',0.163,0.228,0.065,-0.196,0.049,0.146,0.296,0.124,0.312,0.283,0.262,0.217,-0.090,-0.279,-0.076
'0:00.151',0.164,0.225,0.061,-0.195,0.051,0.143,0.293,0.116,0.308,0.277,0.258,0.215,-0.092,-0.283,-0.073
'0:00.152',0.166,0.221,0.056,-0.194,0.055,0.139,0.294,0.120,0.310,0.280,0.260,0.217,-0.092,-0.284,-0.074
'0:00.153',0.167,0.221,0.054,-0.194,0.056,0.138,0.301,0.129,0.314,0.285,0.263,0.219,-0.091,-0.284,-0.076
'0:00.154',0.169,0.226,0.057,-0.198,0.056,0.141,0.298,0.127,0.314,0.285,0.264,0.220,-0.090,-0.282,-0.077
'0:00.155',0.172,0.224,0.052,-0.198,0.059,0.138,0.293,0.126,0.313,0.286,0.262,0.220,-0.089,-0.284,-0.077
'0:00.156',0.170,0.215,0.045,-0.193,0.062,0.130,0.296,0.124,0.312,0.289,0.263,0.219,-0.089,-0.290,-0.074
'0:00.157',0.161,0.205,0.044,-0.183,0.058,0.125,0.299,0.127,0.315,0.292,0.263,0.221,-0.091,-0.292,-0.075
'0:00.158',0.154,0.202,0.048,-0.178,0.053,0.125,0.296,0.126,0.311,0.288,0.260,0.217,-0.091,-0.291,-0.073
'0:00.159',0.157,0.207,0.051,-0.182,0.052,0.130,0.292,0.120,0.309,0.286,0.258,0.216,-0.089,-0.285,-0.073
'0:00.160',0.158,0.214,0.056,-0.186,0.051,0.135,0.295,0.122,0.311,0.287,0.259,0.215,-0.090,-0.279,-0.075
'0:00.161',0.163,0.220,0.058,-0.192,0.052,0.139,0.292,0.119,0.308,0.284,0.259,0.214,-0.090,-0.281,-0.076
'0:00.162',0.168,0.229,0.060,-0.199,0.053,0.144,0.292,0.122,0.311,0.285,0.260,0.214,-0.091,-0.280,-0.078
'0:00.163',0.170,0.234,0.064,-0.202,0.053,0.148,0.293,0.117,0.311,0.284,0.261,0.214,-0.091,-0.277,-0.076
'0:00.164',0.172,0.231,0.059,-0.202,0.057,0.145,0.292,0.114,0.307,0.280,0.257,0.213,-0.090,-0.280,-0.071
'0:00.165',0.171,0.231,0.060,-0.201,0.055,0.145,0.291,0.122,0.309,0.278,0.256,0.212,-0.089,-0.273,-0.071
'0:00.166',0.174,0.236,0.061,-0.205,0.057,0.148,0.289,0.117,0.307,0.276,0.257,0.210,-0.090,-0.269,-0.072
'0:00.167',0.176,0.239,0.064,-0.208,0.056,0.151,0.289,0.114,0.303,0.272,0.254,0.207,-0.091,-0.270,-0.073
'0:00.168',0.172,0.240,0.069,-0.206,0.051,0.154,0.290,0.113,0.304,0.272,0.255,0.208,-0.091,-0.266,-0.074
'0:00.169',0.173,0.238,0.065,-0.205,0.054,0.151,0.293,0.116,0.308,0.279,0.256,0.213,-0.088,-0.270,-0.072
'0:00.170',0.172,0.234,0.061,-0.203,0.056,0.147,0.298,0.117,0.308,0.280,0.255,0.215,-0.088,-0.278,-0.071
'0:00.171',0.173,0.231,0.058,-0.203,0.058,0.144,0.299,0.115,0.306,0.279,0.255,0.214,-0.090,-0.282,-0.070
'0:00.172',0.174,0.230,0.056,-0.202,0.059,0.142,0.299,0.120,0.313,0.283,0.258,0.216,-0.086,-0.279,-0.070
'0:00.173',0.173,0.232,0.059,-0.203,0.057,0.145,0.299,0.124,0.316,0.288,0.262,0.220,-0.082,-0.280,-0.072
'0:00.174',0.170,0.232,0.061,-0.201,0.054,0.146,0.297,0.119,0.310,0.285,0.261,0.217,-0.085,-0.282,-0.071
'0:00.175',0.163,0.225,0.062,-0.194,0.050,0.143,0.297,0.120,0.310,0.286,0.261,0.220,-0.086,-0.282,-0.069
'0:00.176',0.160,0.221,0.061,-0.190,0.049,0.141,0.303,0.128,0.316,0.293,0.265,0.227,-0.084,-0.289,-0.069
'0:00.177',0.161,0.217,0.057,-0.190,0.051,0.138,0.305,0.130,0.317,0.297,0.267,0.230,-0.083,-0.294,-0.069
'0:00.178',0.157,0.214,0.059,-0.186,0.049,0.137,0.303,0.130,0.316,0.296,0.266,0.229,-0.085,-0.291,-0.069
'0:00.179',0.155,0.218,0.062,-0.187,0.046,0.141,0.301,0.124,0.312,0.288,0.262,0.221,-0.089,-0.283,-0.069
'0:00.180',0.155,0.223,0.067,-0.189,0.043,0.144,0.300,0.123,0.313,0.288,0.264,0.221,-0.089,-0.282,-0.071
'0:00.181',0.155,0.226,0.070,-0.191,0.042,0.148,0.300,0.126,0.317,0.290,0.266,0.224,-0.087,-0.282,-0.073
'0:00.182',0.160,0.228,0.068,-0.194,0.045,0.147,0.297,0.120,0.310,0.282,0.259,0.218,-0.089,-0.280,-0.073
'0:00.183',0.158,0.227,0.069,-0.193,0.044,0.147,0.293,0.115,0.305,0.277,0.256,0.215,-0.090,-0.278,-0.073
'0:00.184',0.159,0.224,0.065,-0.191,0.046,0.144,0.289,0.112,0.303,0.274,0.255,0.213,-0.090,-0.277,-0.072
'0:00.185',0.169,0.226,0.057,-0.197,0.056,0.141,0.281,0.109,0.299,0.270,0.252,0.208,-0.089,-0.271,-0.072
'0:00.186',0.172,0.232,0.060,-0.203,0.056,0.146,0.281,0.106,0.296,0.264,0.248,0.203,-0.092,-0.271,-0.072
'0:00.187',0.171,0.235,0.064,-0.203,0.053,0.149,0.281,0.103,0.294,0.264,0.247,0.201,-0.093,-0.271,-0.072
'0:00.188',0.167,0.234,0.067,-0.201,0.050,0.150,0.280,0.102,0.294,0.264,0.248,0.202,-0.094,-0.266,-0.075
'0:00.189',0.163,0.230,0.067,-0.197,0.048,0.148,0.284,0.106,0.294,0.266,0.248,0.203,-0.096,-0.272,-0.075
'0:00.190',0.167,0.229,0.061,-0.198,0.052,0.144,0.287,0.107,0.295,0.270,0.249,0.208,-0.093,-0.276,-0.072
'0:00.191',0.168,0.228,0.060,-0.198,0.053,0.143,0.286,0.109,0.297,0.271,0.251,0.209,-0.093,-0.279,-0.074
'0:00.192',0.166,0.224,0.058,-0.196,0.054,0.141,0.285,0.110,0.298,0.272,0.253,0.208,-0.092,-0.286,-0.070
'0:00.193',0.160,0.223,0.063,-0.192,0.048,0.143,0.288,0.111,0.300,0.275,0.255,0.211,-0.092,-0.281,-0.069
'0:00.194',0.155,0.222,0.066,-0.189,0.044,0.144,0.291,0.114,0.298,0.275,0.252,0.209,-0.095,-0.281,-0.069
'0:00.195',0.160,0.220,0.060,-0.190,0.050,0.141,0.290,0.110,0.296,0.273,0.250,0.208,-0.096,-0.289,-0.069
'0:00.196',0.162,0.220,0.058,-0.191,0.051,0.139,0.294,0.113,0.299,0.278,0.252,0.212,-0.096,-0.291,-0.071
'0:00.197',0.158,0.214,0.057,-0.186,0.050,0.135,0.296,0.118,0.303,0.286,0.257,0.217,-0.092,-0.294,-0.068
'0:00.198',0.151,0.208,0.058,-0.180,0.046,0.134,0.296,0.117,0.301,0.286,0.256,0.215,-0.093,-0.294,-0.067
'0:00.199',0.149,0.209,0.059,-0.179,0.044,0.135,0.294,0.116,0.297,0.281,0.254,0.210,-0.095,-0.288,-0.067
'0:00.200',0.149,0.214,0.065,-0.182,0.042,0.140,0.293,0.112,0.296,0.280,0.253,0.210,-0.094,-0.284,-0.069
'0:00.201',0.152,0.220,0.067,-0.186,0.042,0.143,0.292,0.110,0.294,0.279,0.251,0.207,-0.095,-0.281,-0.070
'0:00.202',0.153,0.222,0.068,-0.188,0.043,0.145,0.285,0.101,0.290,0.275,0.248,0.206,-0.094,-0.279,-0.065
'0:00.203',0.152,0.224,0.071,-0.189,0.041,0.148,0.286,0.104,0.290,0.272,0.243,0.204,-0.098,-0.279,-0.067
'0:00.204',0.157,0.224,0.067,-0.191,0.044,0.145,0.290,0.114,0.295,0.276,0.246,0.205,-0.095,-0.279,-0.069
'0:00.205',0.159,0.225,0.066,-0.192,0.046,0.145,0.283,0.106,0.291,0.272,0.246,0.203,-0.095,-0.279,-0.068
'0:00.206',0.160,0.232,0.071,-0.196,0.044,0.151,0.283,0.104,0.286,0.265,0.240,0.198,-0.099,-0.272,-0.068
'0:00.207',0.166,0.238,0.072,-0.202,0.046,0.155,0.285,0.105,0.287,0.264,0.241,0.201,-0.095,-0.265,-0.066
'0:00.208',0.169,0.240,0.071,-0.204,0.049,0.155,0.284,0.105,0.288,0.267,0.243,0.202,-0.096,-0.262,-0.067
'0:00.209',0.167,0.237,0.070,-0.203,0.048,0.154,0.289,0.108,0.291,0.273,0.245,0.205,-0.097,-0.270,-0.068
'0:00.210',0.164,0.232,0.068,-0.198,0.048,0.150,0.291,0.110,0.290,0.273,0.244,0.207,-0.097,-0.279,-0.067
'0:00.211',0.161,0.228,0.067,-0.195,0.047,0.147,0.289,0.110,0.291,0.273,0.243,0.208,-0.096,-0.280,-0.064
'0:00.212',0.159,0.222,0.064,-0.190,0.047,0.143,0.291,0.111,0.292,0.274,0.243,0.208,-0.096,-0.281,-0.064
'0:00.213',0.161,0.224,0.063,-0.193,0.049,0.143,0.293,0.114,0.294,0.277,0.244,0.208,-0.097,-0.281,-0.065
'0:00.214',0.162,0.226,0.064,-0.194,0.049,0.145,0.292,0.112,0.295,0.276,0.245,0.209,-0.098,-0.280,-0.065
'0:00.215',0.155,0.219,0.063,-0.188,0.046,0.141,0.294,0.112,0.296,0.278,0.247,0.211,-0.097,-0.284,-0.064
'0:00.216',0.150,0.214,0.065,-0.182,0.043,0.140,0.298,0.119,0.304,0.288,0.255,0.218,-0.091,-0.289,-0.064
'0:00.217',0.144,0.205,0.061,-0.175,0.041,0.134,0.296,0.118,0.302,0.287,0.252,0.216,-0.092,-0.297,-0.064
'0:00.218',0.142,0.198,0.056,-0.171,0.043,0.127,0.292,0.115,0.294,0.280,0.242,0.210,-0.097,-0.304,-0.061
'0:00.219',0.140,0.199,0.059,-0.170,0.041,0.129,0.292,0.111,0.290,0.276,0.241,0.207,-0.098,-0.295,-0.064
'0:00.220',0.134,0.197,0.062,-0.166,0.035,0.129,0.288,0.103,0.287,0.273,0.239,0.202,-0.099,-0.291,-0.065
'0:00.221',0.135,0.199,0.064,-0.167,0.035,0.132,0.288,0.103,0.286,0.273,0.237,0.202,-0.097,-0.291,-0.066
'0:00.222',0.137,0.203,0.066,-0.170,0.035,0.135,0.290,0.108,0.289,0.274,0.237,0.203,-0.097,-0.288,-0.068
'0:00.223',0.138,0.204,0.068,-0.172,0.035,0.136,0.288,0.108,0.291,0.274,0.238,0.203,-0.097,-0.287,-0.068
'0:00.224',0.141,0.204,0.064,-0.173,0.038,0.134,0.286,0.107,0.293,0.275,0.239,0.204,-0.097,-0.285,-0.068
'0:00.225',0.141,0.204,0.062,-0.173,0.039,0.133,0.284,0.105,0.293,0.273,0.238,0.202,-0.099,-0.285,-0.068
'0:00.226',0.140,0.209,0.070,-0.175,0.035,0.140,0.285,0.101,0.289,0.267,0.236,0.198,-0.101,-0.277,-0.069
'0:00.227',0.149,0.218,0.069,-0.184,0.041,0.143,0.285,0.101,0.289,0.267,0.236,0.198,-0.102,-0.271,-0.069
'0:00.228',0.156,0.221,0.065,-0.189,0.045,0.142,0.278,0.100,0.287,0.267,0.237,0.200,-0.101,-0.278,-0.067
'0:00.229',0.155,0.216,0.061,-0.186,0.046,0.139,0.281,0.103,0.288,0.270,0.239,0.202,-0.100,-0.281,-0.067
'0:00.230',0.159,0.218,0.059,-0.189,0.050,0.139,0.294,0.110,0.296,0.277,0.243,0.207,-0.101,-0.284,-0.068
'0:00.231',0.159,0.218,0.060,-0.189,0.049,0.140,0.293,0.108,0.296,0.277,0.243,0.209,-0.101,-0.291,-0.066
'0:00.232',0.152,0.210,0.058,-0.181,0.046,0.134,0.295,0.112,0.296,0.279,0.243,0.209,-0.101,-0.295,-0.064
'0:00.233',0.146,0.205,0.059,-0.176,0.043,0.133,0.296,0.114,0.298,0.279,0.245,0.209,-0.102,-0.297,-0.065
'0:00.234',0.147,0.208,0.061,-0.178,0.043,0.135,0.292,0.111,0.298,0.281,0.242,0.208,-0.101,-0.294,-0.069
'0:00.235',0.143,0.203,0.060,-0.173,0.041,0.132,0.297,0.113,0.298,0.281,0.242,0.206,-0.102,-0.293,-0.069
'0:00.236',0.138,0.194,0.057,-0.166,0.040,0.126,0.294,0.115,0.299,0.283,0.244,0.209,-0.102,-0.301,-0.067
'0:00.237',0.133,0.192,0.059,-0.163,0.037,0.126,0.298,0.119,0.306,0.292,0.251,0.215,-0.101,-0.303,-0.066
'0:00.238',0.129,0.189,0.061,-0.159,0.034,0.125,0.302,0.120,0.304,0.291,0.251,0.214,-0.102,-0.302,-0.067
'0:00.239',0.136,0.194,0.058,-0.165,0.038,0.126,0.292,0.113,0.297,0.285,0.246,0.210,-0.102,-0.305,-0.066
'0:00.240',0.141,0.198,0.057,-0.170,0.042,0.128,0.293,0.113,0.295,0.281,0.242,0.206,-0.103,-0.297,-0.065
'0:00.241',0.156,0.202,0.045,-0.179,0.055,0.123,0.290,0.110,0.294,0.281,0.242,0.204,-0.101,-0.292,-0.068
'0:00.242',0.166,0.207,0.042,-0.186,0.061,0.124,0.286,0.105,0.289,0.277,0.239,0.202,-0.102,-0.295,-0.070
'0:00.243',0.152,0.203,0.051,-0.178,0.051,0.127,0.286,0.104,0.286,0.273,0.236,0.201,-0.104,-0.294,-0.069
'0:00.244',0.144,0.197,0.052,-0.171,0.046,0.124,0.287,0.105,0.288,0.276,0.241,0.204,-0.102,-0.293,-0.067
'0:00.245',0.145,0.199,0.053,-0.172,0.046,0.126,0.288,0.105,0.286,0.273,0.241,0.202,-0.105,-0.289,-0.067
'0:00.246',0.151,0.205,0.054,-0.178,0.049,0.130,0.284,0.102,0.286,0.271,0.240,0.199,-0.103,-0.285,-0.068
'0:00.247',0.155,0.209,0.054,-0.182,0.051,0.132,0.284,0.105,0.289,0.273,0.241,0.199,-0.100,-0.283,-0.069
'0:00.248',0.161,0.214,0.053,-0.188,0.053,0.134,0.284,0.106,0.289,0.270,0.240,0.201,-0.102,-0.282,-0.067
'0:00.249',0.162,0.214,0.052,-0.189,0.054,0.133,0.288,0.107,0.292,0.274,0.243,0.204,-0.103,-0.287,-0.064
'0:00.250',0.163,0.212,0.049,-0.188,0.057,0.131,0.290,0.111,0.295,0.279,0.244,0.207,-0.102,-0.293,-0.064
'0:00.251',0.166,0.212,0.046,-0.189,0.059,0.129,0.291,0.113,0.295,0.281,0.247,0.211,-0.100,-0.299,-0.065
'0:00.252',0.165,0.211,0.046,-0.189,0.059,0.129,0.295,0.116,0.296,0.282,0.248,0.212,-0.101,-0.298,-0.065
'0:00.253',0.164,0.209,0.045,-0.186,0.059,0.127,0.294,0.112,0.292,0.280,0.245,0.209,-0.102,-0.298,-0.063
'0:00.254',0.160,0.207,0.049,-0.184,0.055,0.128,0.292,0.110,0.291,0.280,0.247,0.211,-0.100,-0.300,-0.063
'0:00.255',0.152,0.203,0.050,-0.177,0.051,0.126,0.293,0.118,0.294,0.284,0.249,0.213,-0.101,-0.301,-0.067
'0:00.256',0.148,0.197,0.048,-0.172,0.050,0.122,0.295,0.117,0.295,0.287,0.252,0.216,-0.100,-0.306,-0.066
'0:00.257',0.147,0.193,0.045,-0.170,0.051,0.119,0.296,0.118,0.297,0.290,0.254,0.220,-0.096,-0.312,-0.067
'0:00.258',0.141,0.186,0.045,-0.164,0.048,0.116,0.297,0.117,0.295,0.287,0.252,0.214,-0.098,-0.309,-0.069
'0:00.259',0.137,0.188,0.051,-0.163,0.043,0.119,0.297,0.112,0.292,0.284,0.252,0.212,-0.099,-0.301,-0.069
'0:00.260',0.140,0.189,0.049,-0.165,0.045,0.119,0.293,0.107,0.290,0.278,0.247,0.208,-0.100,-0.302,-0.068
'0:00.261',0.147,0.192,0.045,-0.170,0.051,0.118,0.288,0.105,0.287,0.272,0.241,0.203,-0.101,-0.303,-0.065
'0:00.262',0.141,0.195,0.053,-0.168,0.044,0.124,0.288,0.105,0.288,0.273,0.241,0.203,-0.102,-0.296,-0.067
'0:00.263',0.137,0.195,0.059,-0.166,0.038,0.127,0.288,0.103,0.287,0.271,0.241,0.203,-0.103,-0.290,-0.068
'0:00.264',0.141,0.198,0.057,-0.170,0.042,0.127,0.289,0.105,0.289,0.273,0.242,0.205,-0.101,-0.289,-0.066
'0:00.265',0.142,0.200,0.057,-0.171,0.043,0.128,0.288,0.102,0.288,0.271,0.242,0.203,-0.101,-0.289,-0.064
'0:00.266',0.148,0.206,0.058,-0.177,0.045,0.132,0.288,0.102,0.286,0.268,0.241,0.201,-0.102,-0.287,-0.064
'0:00.267',0.153,0.213,0.060,-0.183,0.046,0.137,0.290,0.101,0.286,0.268,0.241,0.201,-0.102,-0.284,-0.065
'0:00.268',0.156,0.220,0.064,-0.188,0.046,0.141,0.289,0.102,0.288,0.269,0.243,0.203,-0.101,-0.282,-0.066
'0:00.269',0.157,0.221,0.064,-0.189,0.046,0.142,0.291,0.106,0.292,0.274,0.247,0.207,-0.101,-0.286,-0.065
'0:00.270',0.157,0.216,0.060,-0.187,0.048,0.139,0.291,0.107,0.295,0.276,0.245,0.207,-0.100,-0.294,-0.064
'0:00.271',0.155,0.212,0.058,-0.184,0.049,0.135,0.296,0.110,0.297,0.279,0.247,0.209,-0.099,-0.293,-0.062
'0:00.272',0.151,0.206,0.054,-0.178,0.048,0.130,0.294,0.106,0.293,0.276,0.243,0.207,-0.100,-0.296,-0.060
'0:00.273',0.153,0.204,0.051,-0.179,0.051,0.127,0.292,0.103,0.288,0.274,0.240,0.203,-0.100,-0.299,-0.060
'0:00.274',0.152,0.203,0.050,-0.177,0.051,0.126,0.295,0.104,0.288,0.274,0.242,0.205,-0.098,-0.296,-0.059
'0:00.275',0.147,0.199,0.051,-0.173,0.048,0.126,0.295,0.110,0.294,0.280,0.245,0.209,-0.096,-0.301,-0.059
'0:00.276',0.143,0.189,0.046,-0.166,0.049,0.117,0.294,0.109,0.293,0.285,0.248,0.212,-0.097,-0.310,-0.062
'0:00.277',0.140,0.178,0.039,-0.160,0.051,0.109,0.293,0.107,0.292,0.286,0.246,0.212,-0.096,-0.317,-0.059
'0:00.278',0.130,0.177,0.048,-0.154,0.041,0.113,0.300,0.114,0.294,0.285,0.243,0.209,-0.100,-0.309,-0.060
'0:00.279',0.124,0.179,0.055,-0.152,0.034,0.117,0.299,0.104,0.287,0.275,0.237,0.203,-0.104,-0.302,-0.061
'0:00.280',0.132,0.188,0.056,-0.160,0.037,0.122,0.292,0.095,0.284,0.273,0.237,0.200,-0.101,-0.300,-0.059
'0:00.281',0.135,0.191,0.056,-0.163,0.040,0.123,0.291,0.102,0.286,0.277,0.239,0.201,-0.099,-0.301,-0.061
'0:00.282',0.136,0.189,0.053,-0.163,0.041,0.121,0.290,0.102,0.286,0.276,0.239,0.200,-0.100,-0.302,-0.060
'0:00.283',0.133,0.190,0.057,-0.162,0.037,0.123,0.292,0.102,0.287,0.277,0.241,0.201,-0.101,-0.300,-0.061
'0:00.284',0.129,0.188,0.059,-0.159,0.035,0.123,0.290,0.102,0.287,0.276,0.242,0.203,-0.100,-0.299,-0.061
'0:00.285',0.132,0.190,0.058,-0.162,0.037,0.124,0.288,0.098,0.284,0.271,0.241,0.200,-0.101,-0.294,-0.060
'0:00.286',0.138,0.196,0.059,-0.167,0.040,0.128,0.288,0.095,0.282,0.265,0.238,0.196,-0.101,-0.289,-0.060
'0:00.287',0.142,0.203,0.060,-0.172,0.041,0.132,0.285,0.091,0.281,0.261,0.236,0.195,-0.099,-0.285,-0.059
'0:00.288',0.144,0.202,0.058,-0.173,0.043,0.130,0.284,0.093,0.283,0.264,0.238,0.195,-0.101,-0.292,-0.060
'0:00.289',0.140,0.196,0.056,-0.168,0.042,0.126,0.289,0.098,0.286,0.269,0.240,0.199,-0.102,-0.297,-0.061
'0:00.290',0.141,0.192,0.051,-0.167,0.044,0.122,0.294,0.100,0.290,0.274,0.244,0.203,-0.103,-0.303,-0.061
'0:00.291',0.143,0.194,0.051,-0.169,0.045,0.122,0.295,0.108,0.295,0.278,0.247,0.204,-0.100,-0.306,-0.062
'0:00.292',0.138,0.193,0.054,-0.165,0.041,0.123,0.298,0.111,0.294,0.279,0.247,0.206,-0.098,-0.301,-0.061
'0:00.293',0.138,0.187,0.050,-0.163,0.043,0.118,0.299,0.101,0.287,0.274,0.241,0.204,-0.102,-0.307,-0.058
'0:00.294',0.140,0.192,0.052,-0.166,0.043,0.121,0.299,0.105,0.287,0.277,0.243,0.206,-0.102,-0.309,-0.060
'0:00.295',0.138,0.191,0.053,-0.165,0.042,0.122,0.298,0.111,0.292,0.285,0.249,0.212,-0.101,-0.310,-0.061
'0:00.296',0.137,0.184,0.048,-0.161,0.044,0.116,0.300,0.110,0.291,0.286,0.249,0.213,-0.101,-0.318,-0.061
'0:00.297',0.126,0.173,0.048,-0.150,0.039,0.111,0.301,0.113,0.292,0.288,0.247,0.214,-0.101,-0.320,-0.061
'0:00.298',0.116,0.165,0.050,-0.141,0.033,0.107,0.299,0.112,0.292,0.287,0.244,0.211,-0.102,-0.316,-0.060
'0:00.299',0.119,0.168,0.049,-0.143,0.035,0.108,0.297,0.110,0.291,0.283,0.243,0.208,-0.103,-0.310,-0.062
'0:00.300',0.122,0.174,0.051,-0.148,0.035,0.113,0.295,0.105,0.289,0.281,0.240,0.206,-0.104,-0.306,-0.062
'0:00.301',0.133,0.178,0.045,-0.156,0.043,0.112,0.295,0.104,0.284,0.278,0.238,0.203,-0.104,-0.307,-0.062
'0:00.302',0.141,0.182,0.041,-0.162,0.051,0.112,0.290,0.101,0.283,0.275,0.236,0.200,-0.105,-0.302,-0.061
'0:00.303',0.138,0.183,0.045,-0.161,0.046,0.114,0.291,0.100,0.285,0.278,0.242,0.202,-0.104,-0.300,-0.062
'0:00.304',0.137,0.183,0.046,-0.161,0.045,0.115,0.295,0.105,0.289,0.279,0.246,0.203,-0.103,-0.301,-0.061
'0:00.305',0.141,0.188,0.047,-0.165,0.046,0.117,0.293,0.103,0.287,0.274,0.240,0.200,-0.104,-0.298,-0.061
'0:00.306',0.142,0.194,0.051,-0.169,0.045,0.122,0.292,0.100,0.285,0.269,0.240,0.198,-0.104,-0.294,-0.061
'0:00.307',0.143,0.199,0.056,-0.171,0.043,0.127,0.289,0.097,0.282,0.264,0.238,0.194,-0.107,-0.285,-0.061
'0:00.308',0.149,0.204,0.054,-0.177,0.047,0.130,0.290,0.096,0.284,0.267,0.240,0.197,-0.106,-0.285,-0.062
'0:00.309',0.158,0.208,0.051,-0.183,0.052,0.130,0.295,0.101,0.290,0.277,0.247,0.205,-0.103,-0.296,-0.062
'0:00.310',0.160,0.207,0.048,-0.184,0.056,0.128,0.300,0.104,0.293,0.281,0.251,0.208,-0.103,-0.298,-0.062
'0:00.311',0.153,0.203,0.050,-0.178,0.051,0.126,0.301,0.105,0.294,0.282,0.254,0.210,-0.102,-0.299,-0.062
'0:00.312',0.154,0.199,0.045,-0.176,0.054,0.122,0.298,0.106,0.292,0.281,0.251,0.209,-0.103,-0.304,-0.061
'0:00.313',0.155,0.201,0.045,-0.178,0.054,0.123,0.303,0.111,0.295,0.282,0.252,0.208,-0.104,-0.303,-0.062
'0:00.314',0.153,0.206,0.053,-0.180,0.050,0.130,0.304,0.114,0.298,0.285,0.256,0.211,-0.104,-0.302,-0.062
'0:00.315',0.155,0.204,0.049,-0.180,0.053,0.127,0.304,0.113,0.295,0.285,0.256,0.214,-0.103,-0.306,-0.061
'0:00.316',0.152,0.194,0.042,-0.173,0.055,0.117,0.305,0.115,0.296,0.289,0.257,0.216,-0.102,-0.317,-0.060
'0:00.317',0.151,0.189,0.037,-0.170,0.057,0.113,0.309,0.116,0.297,0.292,0.258,0.216,-0.102,-0.323,-0.061
'0:00.318',0.149,0.191,0.042,-0.170,0.053,0.116,0.309,0.117,0.297,0.290,0.258,0.216,-0.102,-0.317,-0.060
'0:00.319',0.150,0.194,0.043,-0.172,0.053,0.118,0.305,0.114,0.295,0.287,0.254,0.213,-0.102,-0.314,-0.060
'0:00.320',0.152,0.199,0.045,-0.175,0.053,0.122,0.306,0.113,0.293,0.283,0.252,0.211,-0.102,-0.310,-0.061
'0:00.321',0.154,0.201,0.046,-0.177,0.054,0.123,0.305,0.110,0.291,0.282,0.249,0.209,-0.102,-0.308,-0.062
'0:00.322',0.156,0.203,0.048,-0.180,0.054,0.126,0.299,0.104,0.290,0.281,0.247,0.207,-0.103,-0.302,-0.062
'0:00.323',0.152,0.204,0.052,-0.179,0.050,0.129,0.297,0.106,0.290,0.281,0.248,0.207,-0.103,-0.298,-0.064
'0:00.324',0.148,0.203,0.054,-0.176,0.047,0.129,0.302,0.105,0.286,0.279,0.247,0.206,-0.103,-0.298,-0.064
'0:00.325',0.151,0.204,0.053,-0.177,0.049,0.129,0.301,0.104,0.286,0.277,0.248,0.203,-0.102,-0.293,-0.065
'0:00.326',0.158,0.209,0.052,-0.184,0.052,0.131,0.297,0.102,0.284,0.273,0.243,0.197,-0.104,-0.290,-0.063
'0:00.327',0.159,0.217,0.059,-0.189,0.050,0.138,0.294,0.101,0.284,0.272,0.244,0.199,-0.104,-0.289,-0.064
'0:00.328',0.165,0.218,0.053,-0.192,0.056,0.136,0.294,0.102,0.286,0.275,0.247,0.200,-0.104,-0.298,-0.065
'0:00.329',0.165,0.215,0.051,-0.191,0.057,0.133,0.297,0.102,0.286,0.275,0.246,0.201,-0.107,-0.298,-0.062
'0:00.330',0.159,0.214,0.056,-0.186,0.051,0.135,0.298,0.108,0.289,0.278,0.248,0.205,-0.105,-0.293,-0.062
'0:00.331',0.160,0.211,0.051,-0.185,0.054,0.131,0.299,0.108,0.289,0.278,0.247,0.205,-0.104,-0.300,-0.060
'0:00.332',0.157,0.206,0.051,-0.182,0.053,0.129,0.302,0.111,0.294,0.282,0.251,0.209,-0.103,-0.306,-0.061
'0:00.333',0.162,0.207,0.045,-0.184,0.058,0.127,0.300,0.110,0.291,0.282,0.249,0.208,-0.102,-0.307,-0.061
'0:00.334',0.164,0.211,0.047,-0.188,0.059,0.129,0.299,0.105,0.289,0.281,0.248,0.209,-0.102,-0.306,-0.061
'0:00.335',0.159,0.210,0.051,-0.184,0.053,0.131,0.304,0.115,0.296,0.290,0.255,0.214,-0.099,-0.309,-0.064
'0:00.336',0.155,0.206,0.051,-0.181,0.052,0.129,0.309,0.119,0.297,0.296,0.260,0.217,-0.100,-0.312,-0.065
'0:00.337',0.153,0.199,0.045,-0.176,0.053,0.122,0.308,0.117,0.293,0.294,0.256,0.216,-0.101,-0.317,-0.064
'0:00.338',0.151,0.196,0.044,-0.174,0.053,0.120,0.305,0.115,0.291,0.289,0.251,0.211,-0.102,-0.313,-0.061
'0:00.339',0.151,0.203,0.051,-0.177,0.050,0.127,0.305,0.114,0.292,0.289,0.253,0.209,-0.102,-0.303,-0.062
'0:00.340',0.150,0.205,0.055,-0.178,0.048,0.130,0.302,0.113,0.292,0.291,0.255,0.210,-0.099,-0.301,-0.064
'0:00.341',0.150,0.204,0.054,-0.177,0.048,0.129,0.299,0.108,0.289,0.286,0.251,0.205,-0.101,-0.302,-0.063
'0:00.342',0.152,0.208,0.056,-0.180,0.048,0.132,0.297,0.103,0.282,0.280,0.246,0.203,-0.102,-0.303,-0.063
'0:00.343',0.152,0.211,0.059,-0.181,0.046,0.135,0.296,0.101,0.280,0.278,0.245,0.202,-0.101,-0.299,-0.062
'0:00.344',0.152,0.210,0.058,-0.181,0.047,0.134,0.295,0.102,0.280,0.276,0.244,0.203,-0.102,-0.298,-0.062
'0:00.345',0.151,0.212,0.062,-0.182,0.044,0.138,0.291,0.100,0.280,0.274,0.243,0.201,-0.102,-0.290,-0.063
'0:00.346',0.150,0.217,0.067,-0.184,0.042,0.142,0.294,0.098,0.277,0.272,0.242,0.197,-0.104,-0.282,-0.064
'0:00.347',0.161,0.224,0.062,-0.192,0.049,0.143,0.292,0.097,0.276,0.271,0.241,0.197,-0.102,-0.287,-0.063
'0:00.348',0.166,0.227,0.061,-0.197,0.051,0.144,0.289,0.099,0.280,0.274,0.244,0.197,-0.102,-0.287,-0.065
'0:00.349',0.160,0.220,0.060,-0.191,0.050,0.141,0.294,0.101,0.281,0.277,0.246,0.201,-0.105,-0.289,-0.064
'0:00.350',0.159,0.213,0.055,-0.186,0.051,0.134,0.296,0.102,0.280,0.277,0.244,0.203,-0.104,-0.297,-0.061
'0:00.351',0.157,0.211,0.054,-0.184,0.051,0.133,0.296,0.103,0.280,0.277,0.244,0.201,-0.105,-0.298,-0.061
'0:00.352',0.155,0.205,0.051,-0.180,0.051,0.129,0.295,0.101,0.280,0.276,0.244,0.201,-0.105,-0.299,-0.060
'0:00.353',0.155,0.206,0.051,-0.180,0.051,0.129,0.294,0.101,0.280,0.275,0.242,0.201,-0.105,-0.301,-0.059
'0:00.354',0.159,0.212,0.054,-0.185,0.052,0.133,0.294,0.103,0.283,0.280,0.246,0.203,-0.103,-0.302,-0.060
'0:00.355',0.160,0.209,0.051,-0.185,0.054,0.130,0.298,0.105,0.286,0.284,0.247,0.207,-0.102,-0.304,-0.064
'0:00.356',0.151,0.199,0.048,-0.175,0.051,0.123,0.302,0.104,0.285,0.283,0.245,0.209,-0.105,-0.308,-0.062
'0:00.357',0.145,0.191,0.046,-0.169,0.050,0.118,0.301,0.107,0.287,0.286,0.246,0.210,-0.105,-0.308,-0.060
'0:00.358',0.145,0.191,0.046,-0.169,0.049,0.118,0.301,0.107,0.287,0.285,0.246,0.210,-0.105,-0.307,-0.061
'0:00.359',0.143,0.194,0.050,-0.169,0.046,0.121,0.300,0.102,0.281,0.277,0.240,0.203,-0.107,-0.303,-0.063
'0:00.360',0.146,0.195,0.049,-0.171,0.049,0.122,0.295,0.098,0.280,0.274,0.239,0.200,-0.107,-0.300,-0.063
'0:00.361',0.146,0.197,0.051,-0.172,0.047,0.124,0.294,0.098,0.281,0.277,0.243,0.202,-0.106,-0.299,-0.065
'0:00.362',0.143,0.200,0.057,-0.172,0.043,0.128,0.295,0.099,0.282,0.278,0.242,0.202,-0.106,-0.294,-0.067
'0:00.363',0.145,0.200,0.054,-0.172,0.045,0.127,0.293,0.097,0.279,0.273,0.239,0.200,-0.107,-0.297,-0.066
'0:00.364',0.147,0.195,0.048,-0.172,0.050,0.121,0.290,0.095,0.273,0.266,0.237,0.196,-0.108,-0.300,-0.063
'0:00.365',0.152,0.203,0.051,-0.177,0.051,0.127,0.290,0.093,0.277,0.267,0.238,0.195,-0.106,-0.293,-0.063
'0:00.366',0.156,0.209,0.053,-0.183,0.051,0.132,0.288,0.090,0.277,0.266,0.237,0.194,-0.106,-0.288,-0.063
'0:00.367',0.166,0.215,0.050,-0.191,0.058,0.132,0.287,0.090,0.276,0.263,0.234,0.193,-0.105,-0.286,-0.060
'0:00.368',0.170,0.220,0.050,-0.195,0.059,0.135,0.290,0.093,0.279,0.268,0.239,0.198,-0.103,-0.285,-0.061
'0:00.369',0.172,0.220,0.048,-0.196,0.061,0.134,0.294,0.096,0.280,0.270,0.241,0.201,-0.103,-0.290,-0.060
'0:00.370',0.172,0.214,0.043,-0.194,0.065,0.129,0.298,0.098,0.280,0.272,0.242,0.202,-0.105,-0.297,-0.060
'0:00.371',0.166,0.206,0.041,-0.186,0.062,0.123,0.297,0.099,0.280,0.272,0.241,0.201,-0.105,-0.299,-0.061
'0:00.372',0.168,0.205,0.038,-0.187,0.065,0.122,0.294,0.099,0.279,0.272,0.242,0.201,-0.104,-0.301,-0.060
'0:00.373',0.167,0.204,0.037,-0.185,0.065,0.121,0.291,0.097,0.277,0.272,0.240,0.201,-0.105,-0.303,-0.059
'0:00.374',0.166,0.207,0.042,-0.186,0.062,0.124,0.299,0.098,0.277,0.270,0.239,0.201,-0.107,-0.302,-0.060
'0:00.375',0.168,0.206,0.039,-0.187,0.064,0.123,0.301,0.102,0.280,0.276,0.242,0.205,-0.105,-0.306,-0.061
'0:00.376',0.168,0.202,0.035,-0.185,0.067,0.118,0.301,0.107,0.281,0.281,0.244,0.208,-0.104,-0.312,-0.061
'0:00.377',0.163,0.195,0.032,-0.179,0.065,0.114,0.297,0.104,0.281,0.281,0.241,0.206,-0.105,-0.318,-0.059
'0:00.378',0.158,0.191,0.034,-0.174,0.061,0.113,0.297,0.103,0.280,0.281,0.240,0.205,-0.105,-0.314,-0.059
'0:00.379',0.160,0.199,0.039,-0.179,0.060,0.119,0.309,0.105,0.281,0.280,0.241,0.204,-0.104,-0.303,-0.062
'0:00.380',0.165,0.203,0.039,-0.184,0.062,0.121,0.301,0.098,0.276,0.274,0.236,0.199,-0.106,-0.302,-0.061
'0:00.381',0.170,0.207,0.037,-0.189,0.066,0.122,0.298,0.095,0.272,0.271,0.234,0.197,-0.110,-0.303,-0.060
'0:00.382',0.173,0.215,0.043,-0.195,0.065,0.129,0.302,0.099,0.277,0.273,0.236,0.199,-0.108,-0.300,-0.064
'0:00.383',0.176,0.216,0.041,-0.197,0.068,0.129,0.299,0.102,0.279,0.274,0.238,0.199,-0.106,-0.302,-0.065
'0:00.384',0.174,0.212,0.038,-0.194,0.068,0.126,0.300,0.098,0.278,0.271,0.237,0.198,-0.107,-0.302,-0.061
'0:00.385',0.172,0.216,0.044,-0.195,0.064,0.131,0.298,0.096,0.277,0.269,0.236,0.196,-0.106,-0.295,-0.062
'0:00.386',0.176,0.223,0.047,-0.200,0.065,0.135,0.294,0.092,0.274,0.265,0.235,0.194,-0.105,-0.292,-0.062
'0:00.387',0.177,0.225,0.047,-0.202,0.065,0.136,0.290,0.087,0.272,0.260,0.230,0.191,-0.107,-0.291,-0.061
'0:00.388',0.182,0.226,0.043,-0.204,0.069,0.135,0.292,0.091,0.274,0.264,0.233,0.191,-0.108,-0.289,-0.062
'0:00.389',0.181,0.228,0.046,-0.205,0.068,0.137,0.295,0.097,0.279,0.272,0.240,0.198,-0.105,-0.290,-0.059
'0:00.390',0.169,0.220,0.051,-0.195,0.059,0.135,0.302,0.102,0.280,0.275,0.240,0.203,-0.105,-0.297,-0.059
'0:00.391',0.172,0.214,0.042,-0.194,0.065,0.129,0.298,0.100,0.277,0.272,0.236,0.199,-0.106,-0.302,-0.061
'0:00.392',0.176,0.215,0.040,-0.197,0.068,0.128,0.298,0.100,0.278,0.275,0.238,0.201,-0.103,-0.302,-0.059
'0:00.393',0.179,0.214,0.035,-0.197,0.072,0.124,0.298,0.101,0.277,0.273,0.238,0.201,-0.102,-0.308,-0.060
'0:00.394',0.186,0.217,0.031,-0.202,0.077,0.124,0.293,0.099,0.278,0.276,0.239,0.199,-0.101,-0.304,-0.064
'0:00.395',0.180,0.213,0.033,-0.197,0.073,0.123,0.299,0.102,0.279,0.279,0.241,0.203,-0.101,-0.304,-0.062
'0:00.396',0.172,0.203,0.030,-0.188,0.071,0.116,0.300,0.102,0.275,0.276,0.237,0.202,-0.103,-0.313,-0.060
'0:00.397',0.166,0.196,0.029,-0.181,0.068,0.113,0.300,0.102,0.275,0.280,0.237,0.202,-0.103,-0.317,-0.060
'0:00.398',0.172,0.198,0.025,-0.185,0.073,0.112,0.297,0.101,0.277,0.277,0.238,0.201,-0.101,-0.313,-0.060
'0:00.399',0.182,0.205,0.022,-0.194,0.080,0.114,0.290,0.099,0.277,0.276,0.239,0.197,-0.099,-0.304,-0.060
'0:00.400',0.177,0.204,0.027,-0.191,0.075,0.116,0.288,0.097,0.274,0.273,0.236,0.196,-0.099,-0.302,-0.059
'0:00.401',0.172,0.207,0.035,-0.190,0.069,0.120,0.291,0.096,0.274,0.270,0.234,0.196,-0.101,-0.298,-0.062
'0:00.402',0.175,0.210,0.035,-0.193,0.070,0.122,0.290,0.094,0.270,0.267,0.232,0.193,-0.102,-0.294,-0.062
'0:00.403',0.181,0.211,0.030,-0.197,0.075,0.120,0.287,0.091,0.268,0.265,0.231,0.193,-0.102,-0.296,-0.060
'0:00.404',0.178,0.211,0.033,-0.195,0.072,0.122,0.289,0.092,0.273,0.268,0.234,0.193,-0.104,-0.299,-0.061
'0:00.405',0.177,0.215,0.037,-0.197,0.070,0.126,0.289,0.091,0.273,0.265,0.234,0.193,-0.104,-0.295,-0.062
'0:00.406',0.181,0.222,0.041,-0.202,0.070,0.131,0.286,0.088,0.273,0.264,0.235,0.192,-0.103,-0.290,-0.064
'0:00.407',0.186,0.224,0.038,-0.205,0.074,0.131,0.284,0.085,0.272,0.258,0.232,0.190,-0.105,-0.289,-0.062
'0:00.408',0.191,0.226,0.035,-0.209,0.077,0.131,0.284,0.088,0.271,0.255,0.230,0.190,-0.104,-0.293,-0.058
'0:00.409',0.186,0.224,0.038,-0.205,0.073,0.131,0.287,0.093,0.275,0.261,0.234,0.193,-0.102,-0.294,-0.059
'0:00.410',0.182,0.221,0.037,-0.202,0.072,0.129,0.286,0.094,0.280,0.266,0.235,0.196,-0.101,-0.292,-0.059
'0:00.411',0.179,0.215,0.037,-0.198,0.071,0.127,0.289,0.094,0.277,0.264,0.235,0.196,-0.101,-0.297,-0.056
'0:00.412',0.175,0.210,0.035,-0.193,0.070,0.123,0.293,0.096,0.277,0.265,0.235,0.199,-0.102,-0.304,-0.059
'0:00.413',0.179,0.209,0.030,-0.195,0.074,0.120,0.289,0.097,0.276,0.266,0.236,0.200,-0.099,-0.307,-0.058
'0:00.414',0.180,0.213,0.034,-0.197,0.073,0.123,0.290,0.094,0.273,0.265,0.234,0.199,-0.100,-0.307,-0.058
'0:00.415',0.178,0.211,0.034,-0.195,0.072,0.122,0.296,0.101,0.279,0.273,0.238,0.204,-0.101,-0.308,-0.061
'0:00.416',0.176,0.204,0.028,-0.191,0.074,0.116,0.297,0.107,0.283,0.279,0.243,0.206,-0.100,-0.314,-0.062
'0:00.417',0.173,0.202,0.028,-0.188,0.072,0.115,0.298,0.106,0.284,0.281,0.243,0.208,-0.100,-0.315,-0.061
'0:00.418',0.166,0.196,0.031,-0.181,0.067,0.114,0.300,0.106,0.281,0.278,0.239,0.205,-0.102,-0.314,-0.062
'0:00.419',0.162,0.197,0.035,-0.179,0.063,0.116,0.296,0.100,0.277,0.271,0.236,0.200,-0.105,-0.312,-0.062
'0:00.420',0.167,0.203,0.036,-0.185,0.065,0.119,0.293,0.098,0.278,0.270,0.237,0.199,-0.102,-0.306,-0.062
'0:00.421',0.163,0.201,0.037,-0.182,0.062,0.119,0.289,0.094,0.276,0.269,0.235,0.196,-0.104,-0.304,-0.062
'0:00.422',0.164,0.206,0.042,-0.185,0.061,0.123,0.292,0.095,0.278,0.270,0.236,0.197,-0.104,-0.302,-0.061
'0:00.423',0.174,0.215,0.041,-0.195,0.067,0.128,0.293,0.099,0.280,0.272,0.237,0.199,-0.103,-0.301,-0.062
'0:00.424',0.176,0.212,0.035,-0.195,0.070,0.124,0.290,0.097,0.278,0.270,0.235,0.197,-0.104,-0.304,-0.061
'0:00.425',0.184,0.214,0.029,-0.200,0.077,0.122,0.288,0.092,0.276,0.265,0.233,0.193,-0.104,-0.299,-0.061
'0:00.426',0.194,0.222,0.028,-0.208,0.083,0.124,0.281,0.083,0.269,0.255,0.226,0.186,-0.106,-0.292,-0.061
'0:00.427',0.193,0.225,0.032,-0.209,0.080,0.128,0.282,0.084,0.270,0.256,0.228,0.187,-0.106,-0.289,-0.060
'0:00.428',0.191,0.226,0.035,-0.209,0.078,0.131,0.285,0.088,0.273,0.261,0.231,0.189,-0.105,-0.293,-0.061
'0:00.429',0.188,0.222,0.035,-0.205,0.076,0.129,0.285,0.088,0.272,0.262,0.229,0.189,-0.109,-0.298,-0.061
'0:00.430',0.182,0.216,0.034,-0.199,0.074,0.125,0.286,0.091,0.273,0.265,0.232,0.192,-0.111,-0.298,-0.062
'0:00.431',0.185,0.217,0.032,-0.202,0.076,0.125,0.288,0.098,0.279,0.267,0.236,0.196,-0.107,-0.301,-0.061
'0:00.432',0.189,0.217,0.029,-0.203,0.080,0.123,0.291,0.100,0.282,0.269,0.238,0.197,-0.106,-0.300,-0.059
'0:00.433',0.186,0.215,0.029,-0.201,0.078,0.122,0.293,0.099,0.280,0.269,0.237,0.198,-0.108,-0.300,-0.060
'0:00.434',0.184,0.215,0.031,-0.200,0.076,0.123,0.287,0.096,0.278,0.269,0.237,0.198,-0.108,-0.302,-0.061
'0:00.435',0.178,0.207,0.029,-0.193,0.074,0.118,0.292,0.101,0.279,0.274,0.237,0.199,-0.108,-0.304,-0.062
'0:00.436',0.170,0.200,0.029,-0.185,0.070,0.115,0.300,0.105,0.281,0.279,0.239,0.202,-0.109,-0.311,-0.063
'0:00.437',0.169,0.195,0.026,-0.182,0.071,0.110,0.296,0.104,0.281,0.280,0.239,0.203,-0.108,-0.318,-0.060
'0:00.438',0.164,0.191,0.026,-0.177,0.069,0.109,0.297,0.105,0.280,0.277,0.236,0.203,-0.108,-0.315,-0.059
'0:00.439',0.167,0.199,0.031,-0.183,0.068,0.115,0.293,0.102,0.279,0.275,0.236,0.200,-0.107,-0.309,-0.059
'0:00.440',0.174,0.202,0.028,-0.188,0.073,0.115,0.288,0.099,0.278,0.273,0.234,0.199,-0.106,-0.310,-0.058
'0:00.441',0.172,0.204,0.032,-0.189,0.070,0.118,0.290,0.099,0.279,0.276,0.235,0.200,-0.106,-0.307,-0.059
'0:00.442',0.170,0.208,0.038,-0.189,0.066,0.123,0.289,0.096,0.278,0.275,0.235,0.198,-0.108,-0.300,-0.061
'0:00.443',0.166,0.203,0.037,-0.185,0.064,0.120,0.289,0.094,0.276,0.272,0.232,0.194,-0.111,-0.300,-0.061
'0:00.444',0.171,0.203,0.033,-0.186,0.069,0.117,0.288,0.095,0.276,0.270,0.232,0.193,-0.108,-0.296,-0.060
'0:00.445',0.176,0.208,0.032,-0.193,0.071,0.120,0.286,0.093,0.275,0.267,0.231,0.192,-0.107,-0.292,-0.060
'0:00.446',0.176,0.214,0.038,-0.195,0.069,0.126,0.286,0.093,0.276,0.265,0.231,0.190,-0.106,-0.290,-0.062
'0:00.447',0.179,0.218,0.039,-0.199,0.070,0.129,0.285,0.093,0.276,0.261,0.230,0.188,-0.107,-0.294,-0.062
'0:00.448',0.183,0.219,0.036,-0.202,0.073,0.128,0.286,0.093,0.275,0.264,0.230,0.189,-0.109,-0.299,-0.061
'0:00.449',0.182,0.213,0.032,-0.198,0.075,0.122,0.287,0.095,0.275,0.267,0.232,0.191,-0.106,-0.304,-0.064
'0:00.450',0.175,0.203,0.028,-0.189,0.073,0.116,0.288,0.097,0.277,0.269,0.235,0.194,-0.105,-0.308,-0.063
'0:00.451',0.169,0.198,0.029,-0.184,0.070,0.113,0.287,0.095,0.277,0.267,0.232,0.193,-0.107,-0.306,-0.060
'0:00.452',0.169,0.197,0.027,-0.183,0.071,0.112,0.288,0.094,0.275,0.267,0.231,0.195,-0.107,-0.307,-0.060
'0:00.453',0.169,0.195,0.025,-0.182,0.071,0.110,0.289,0.095,0.273,0.266,0.231,0.195,-0.107,-0.309,-0.059
'0:00.454',0.172,0.199,0.026,-0.186,0.073,0.113,0.286,0.092,0.273,0.264,0.229,0.192,-0.109,-0.308,-0.060
'0:00.455',0.175,0.200,0.025,-0.188,0.075,0.112,0.289,0.099,0.279,0.272,0.233,0.198,-0.107,-0.311,-0.061
'0:00.456',0.169,0.193,0.025,-0.181,0.071,0.109,0.295,0.103,0.279,0.275,0.235,0.201,-0.106,-0.317,-0.061
'0:00.457',0.164,0.188,0.025,-0.176,0.070,0.106,0.297,0.099,0.277,0.274,0.235,0.201,-0.106,-0.318,-0.060
'0:00.458',0.165,0.186,0.022,-0.175,0.071,0.104,0.292,0.097,0.275,0.271,0.232,0.198,-0.105,-0.311,-0.059
'0:00.459',0.167,0.188,0.021,-0.177,0.072,0.105,0.288,0.094,0.273,0.267,0.231,0.192,-0.106,-0.300,-0.063
'0:00.460',0.170,0.194,0.024,-0.182,0.073,0.108,0.288,0.092,0.273,0.267,0.230,0.191,-0.105,-0.298,-0.061
'0:00.461',0.173,0.199,0.025,-0.186,0.073,0.113,0.286,0.093,0.271,0.266,0.227,0.190,-0.106,-0.302,-0.060
'0:00.462',0.172,0.199,0.026,-0.185,0.072,0.113,0.285,0.090,0.267,0.263,0.225,0.188,-0.107,-0.299,-0.061
'0:00.463',0.173,0.201,0.026,-0.187,0.073,0.114,0.285,0.087,0.267,0.265,0.226,0.189,-0.106,-0.295,-0.060
'0:00.464',0.174,0.200,0.026,-0.188,0.074,0.113,0.283,0.087,0.268,0.266,0.229,0.189,-0.107,-0.293,-0.059
'0:00.465',0.169,0.199,0.030,-0.184,0.069,0.115,0.282,0.086,0.267,0.260,0.227,0.187,-0.109,-0.293,-0.059
'0:00.466',0.176,0.211,0.035,-0.194,0.070,0.123,0.280,0.085,0.267,0.257,0.227,0.186,-0.106,-0.287,-0.060
'0:00.467',0.186,0.220,0.034,-0.203,0.076,0.127,0.279,0.086,0.267,0.258,0.228,0.186,-0.105,-0.289,-0.059
'0:00.468',0.189,0.223,0.034,-0.206,0.077,0.129,0.281,0.089,0.269,0.260,0.231,0.190,-0.107,-0.289,-0.060
'0:00.469',0.192,0.223,0.032,-0.207,0.080,0.128,0.284,0.092,0.272,0.265,0.232,0.193,-0.106,-0.293,-0.061
'0:00.470',0.187,0.220,0.033,-0.203,0.077,0.126,0.284,0.095,0.274,0.269,0.237,0.198,-0.105,-0.300,-0.060
'0:00.471',0.183,0.215,0.032,-0.199,0.075,0.123,0.287,0.098,0.275,0.269,0.239,0.199,-0.106,-0.300,-0.060
'0:00.472',0.183,0.210,0.026,-0.197,0.078,0.118,0.286,0.096,0.273,0.266,0.234,0.195,-0.108,-0.304,-0.061
'0:00.473',0.185,0.210,0.025,-0.198,0.080,0.118,0.289,0.093,0.274,0.267,0.233,0.194,-0.109,-0.304,-0.061
'0:00.474',0.186,0.212,0.026,-0.200,0.080,0.119,0.291,0.096,0.275,0.270,0.234,0.197,-0.108,-0.302,-0.062
'0:00.475',0.182,0.212,0.030,-0.198,0.075,0.121,0.295,0.102,0.279,0.276,0.237,0.203,-0.106,-0.304,-0.063
'0:00.476',0.177,0.206,0.029,-0.192,0.074,0.117,0.302,0.105,0.282,0.278,0.238,0.205,-0.105,-0.311,-0.061
'0:00.477',0.176,0.203,0.026,-0.190,0.075,0.114,0.291,0.102,0.279,0.277,0.239,0.206,-0.105,-0.312,-0.059
'0:00.478',0.173,0.200,0.026,-0.187,0.073,0.113,0.285,0.100,0.277,0.276,0.239,0.203,-0.105,-0.309,-0.058
'0:00.479',0.169,0.200,0.032,-0.184,0.069,0.116,0.288,0.097,0.274,0.271,0.234,0.198,-0.108,-0.303,-0.059
'0:00.480',0.168,0.204,0.036,-0.186,0.066,0.120,0.289,0.100,0.274,0.270,0.231,0.197,-0.109,-0.301,-0.062
'0:00.481',0.169,0.204,0.035,-0.187,0.067,0.120,0.286,0.099,0.276,0.271,0.231,0.198,-0.106,-0.304,-0.061
'0:00.482',0.171,0.208,0.037,-0.190,0.067,0.123,0.282,0.093,0.274,0.269,0.231,0.197,-0.106,-0.297,-0.062
'0:00.483',0.170,0.204,0.035,-0.187,0.067,0.120,0.287,0.095,0.272,0.268,0.228,0.194,-0.109,-0.296,-0.063
'0:00.484',0.168,0.200,0.032,-0.184,0.068,0.116,0.288,0.093,0.272,0.266,0.228,0.191,-0.111,-0.300,-0.065
'0:00.485',0.172,0.205,0.034,-0.189,0.069,0.119,0.285,0.088,0.269,0.262,0.226,0.191,-0.111,-0.295,-0.064
'0:00.486',0.181,0.213,0.033,-0.198,0.074,0.123,0.283,0.087,0.268,0.258,0.222,0.188,-0.112,-0.290,-0.061
'0:00.487',0.189,0.222,0.033,-0.205,0.077,0.128,0.280,0.088,0.270,0.259,0.226,0.189,-0.111,-0.291,-0.062
'0:00.488',0.190,0.223,0.033,-0.206,0.078,0.128,0.283,0.090,0.273,0.263,0.228,0.192,-0.109,-0.294,-0.063
'0:00.489',0.190,0.220,0.029,-0.205,0.081,0.124,0.290,0.095,0.273,0.263,0.226,0.193,-0.112,-0.299,-0.064
'0:00.490',0.184,0.214,0.029,-0.200,0.077,0.121,0.289,0.098,0.275,0.268,0.231,0.196,-0.111,-0.303,-0.064
'0:00.491',0.185,0.210,0.026,-0.198,0.080,0.118,0.291,0.100,0.279,0.272,0.234,0.199,-0.109,-0.307,-0.064
'0:00.492',0.187,0.208,0.021,-0.198,0.083,0.115,0.297,0.102,0.280,0.271,0.233,0.201,-0.109,-0.308,-0.062
'0:00.493',0.186,0.208,0.021,-0.198,0.082,0.115,0.297,0.103,0.282,0.274,0.234,0.201,-0.107,-0.306,-0.059
'0:00.494',0.186,0.211,0.025,-0.199,0.081,0.118,0.294,0.101,0.281,0.276,0.235,0.202,-0.105,-0.305,-0.059
'0:00.495',0.183,0.208,0.025,-0.196,0.079,0.117,0.296,0.103,0.284,0.280,0.237,0.205,-0.105,-0.310,-0.059
'0:00.496',0.179,0.203,0.025,-0.192,0.077,0.114,0.303,0.108,0.286,0.285,0.237,0.207,-0.105,-0.316,-0.059
'0:00.497',0.173,0.200,0.026,-0.187,0.073,0.114,0.305,0.109,0.287,0.285,0.240,0.211,-0.105,-0.315,-0.059
'0:00.498',0.176,0.199,0.022,-0.188,0.077,0.111,0.301,0.107,0.287,0.283,0.237,0.209,-0.104,-0.312,-0.058
'0:00.499',0.178,0.203,0.025,-0.191,0.076,0.114,0.297,0.100,0.280,0.277,0.233,0.203,-0.105,-0.306,-0.060
'0:00.500',0.179,0.205,0.025,-0.193,0.077,0.116,0.294,0.097,0.280,0.274,0.234,0.201,-0.105,-0.306,-0.060
'0:00.501',0.182,0.206,0.024,-0.195,0.079,0.115,0.292,0.096,0.281,0.273,0.232,0.200,-0.105,-0.303,-0.059
'0:00.502',0.180,0.211,0.032,-0.196,0.074,0.121,0.295,0.099,0.280,0.272,0.232,0.200,-0.106,-0.300,-0.059
'0:00.503',0.182,0.210,0.028,-0.196,0.077,0.118,0.296,0.102,0.282,0.273,0.234,0.199,-0.104,-0.304,-0.059
'0:00.504',0.183,0.208,0.025,-0.196,0.079,0.117,0.296,0.103,0.284,0.276,0.235,0.200,-0.104,-0.301,-0.061
'0:00.505',0.182,0.212,0.030,-0.198,0.076,0.121,0.292,0.100,0.281,0.272,0.234,0.199,-0.106,-0.292,-0.062
'0:00.506',0.189,0.220,0.030,-0.204,0.079,0.125,0.293,0.095,0.274,0.265,0.232,0.196,-0.107,-0.291,-0.061
'0:00.507',0.196,0.227,0.032,-0.211,0.082,0.130,0.293,0.097,0.278,0.270,0.237,0.198,-0.104,-0.288,-0.062
'0:00.508',0.193,0.224,0.030,-0.208,0.082,0.127,0.291,0.099,0.280,0.272,0.238,0.199,-0.104,-0.293,-0.064
'0:00.509',0.187,0.215,0.029,-0.201,0.079,0.121,0.297,0.102,0.280,0.274,0.240,0.201,-0.106,-0.306,-0.065
'0:00.510',0.185,0.212,0.028,-0.199,0.079,0.119,0.302,0.104,0.281,0.275,0.239,0.203,-0.108,-0.307,-0.064
'0:00.511',0.182,0.207,0.026,-0.195,0.077,0.117,0.305,0.104,0.283,0.275,0.239,0.203,-0.108,-0.307,-0.067
'0:00.512',0.184,0.209,0.025,-0.197,0.080,0.117,0.305,0.110,0.288,0.281,0.245,0.208,-0.104,-0.309,-0.068
'0:00.513',0.189,0.213,0.024,-0.201,0.082,0.118,0.307,0.111,0.289,0.281,0.246,0.209,-0.103,-0.306,-0.066
'0:00.514',0.181,0.212,0.030,-0.197,0.075,0.121,0.306,0.113,0.290,0.281,0.245,0.208,-0.105,-0.303,-0.067
'0:00.515',0.179,0.209,0.029,-0.194,0.074,0.119,0.307,0.115,0.290,0.284,0.244,0.211,-0.105,-0.307,-0.067
'0:00.516',0.179,0.203,0.024,-0.191,0.077,0.114,0.313,0.115,0.290,0.288,0.247,0.212,-0.105,-0.318,-0.067
'0:00.517',0.176,0.199,0.022,-0.188,0.076,0.111,0.314,0.120,0.292,0.294,0.248,0.215,-0.104,-0.323,-0.067
'0:00.518',0.171,0.196,0.025,-0.183,0.073,0.110,0.314,0.119,0.294,0.294,0.249,0.214,-0.101,-0.320,-0.068
'0:00.519',0.172,0.196,0.025,-0.184,0.073,0.111,0.309,0.114,0.286,0.284,0.245,0.207,-0.103,-0.311,-0.068
'0:00.520',0.171,0.200,0.029,-0.185,0.070,0.114,0.306,0.112,0.283,0.281,0.240,0.204,-0.103,-0.307,-0.070
'0:00.521',0.166,0.205,0.040,-0.185,0.062,0.122,0.310,0.112,0.283,0.282,0.244,0.205,-0.105,-0.297,-0.072
'0:00.522',0.166,0.213,0.048,-0.190,0.059,0.130,0.306,0.112,0.283,0.281,0.243,0.204,-0.108,-0.290,-0.073
'0:00.523',0.169,0.220,0.051,-0.194,0.059,0.136,0.310,0.116,0.289,0.286,0.247,0.208,-0.104,-0.288,-0.075
'0:00.524',0.177,0.232,0.054,-0.205,0.061,0.143,0.315,0.120,0.293,0.287,0.251,0.211,-0.105,-0.279,-0.074
'0:00.525',0.178,0.243,0.066,-0.211,0.056,0.154,0.311,0.119,0.295,0.286,0.252,0.211,-0.105,-0.265,-0.077
'0:00.526',0.181,0.256,0.074,-0.219,0.053,0.166,0.309,0.114,0.293,0.284,0.254,0.210,-0.105,-0.247,-0.081
'0:00.527',0.187,0.271,0.084,-0.229,0.051,0.177,0.309,0.114,0.295,0.283,0.257,0.212,-0.104,-0.235,-0.081
'0:00.528',0.190,0.280,0.090,-0.235,0.050,0.185,0.311,0.117,0.298,0.288,0.262,0.217,-0.103,-0.233,-0.084
'0:00.529',0.195,0.278,0.084,-0.236,0.056,0.181,0.310,0.119,0.299,0.293,0.266,0.221,-0.102,-0.238,-0.083
'0:00.530',0.189,0.271,0.082,-0.230,0.053,0.176,0.321,0.127,0.305,0.297,0.268,0.225,-0.098,-0.243,-0.083
'0:00.531',0.188,0.273,0.085,-0.230,0.051,0.178,0.326,0.134,0.308,0.298,0.268,0.225,-0.099,-0.240,-0.086
'0:00.532',0.194,0.270,0.076,-0.232,0.059,0.172,0.322,0.136,0.310,0.299,0.267,0.226,-0.096,-0.243,-0.086
'0:00.533',0.195,0.271,0.076,-0.233,0.059,0.173,0.323,0.138,0.312,0.301,0.270,0.229,-0.094,-0.242,-0.087
'0:00.534',0.200,0.272,0.071,-0.235,0.064,0.171,0.322,0.135,0.309,0.301,0.269,0.228,-0.092,-0.240,-0.090
'0:00.535',0.199,0.261,0.062,-0.230,0.068,0.162,0.327,0.137,0.309,0.301,0.266,0.226,-0.093,-0.248,-0.091
'0:00.536',0.185,0.255,0.070,-0.221,0.058,0.163,0.332,0.143,0.314,0.306,0.268,0.229,-0.097,-0.252,-0.092
'0:00.537',0.179,0.249,0.070,-0.214,0.054,0.160,0.336,0.146,0.315,0.309,0.268,0.231,-0.098,-0.251,-0.092
'0:00.538',0.172,0.248,0.076,-0.210,0.048,0.163,0.339,0.149,0.316,0.306,0.268,0.229,-0.100,-0.247,-0.095
'0:00.539',0.166,0.249,0.084,-0.207,0.041,0.166,0.338,0.147,0.315,0.302,0.266,0.224,-0.100,-0.242,-0.101
'0:00.540',0.165,0.253,0.087,-0.209,0.038,0.170,0.343,0.148,0.317,0.300,0.265,0.222,-0.102,-0.234,-0.106
'0:00.541',0.166,0.262,0.096,-0.214,0.035,0.179,0.349,0.158,0.327,0.312,0.276,0.230,-0.096,-0.229,-0.111
'0:00.542',0.172,0.265,0.093,-0.218,0.038,0.179,0.346,0.161,0.325,0.311,0.274,0.229,-0.094,-0.234,-0.110
'0:00.543',0.182,0.267,0.084,-0.225,0.049,0.175,0.339,0.157,0.322,0.306,0.270,0.224,-0.094,-0.239,-0.107
'0:00.544',0.193,0.268,0.074,-0.231,0.059,0.171,0.335,0.158,0.327,0.310,0.275,0.227,-0.089,-0.240,-0.108
'0:00.545',0.203,0.270,0.067,-0.236,0.067,0.169,0.333,0.157,0.322,0.303,0.270,0.222,-0.090,-0.236,-0.110
'0:00.546',0.208,0.275,0.067,-0.241,0.070,0.171,0.328,0.153,0.321,0.301,0.270,0.220,-0.088,-0.235,-0.110
'0:00.547',0.210,0.283,0.073,-0.247,0.068,0.178,0.327,0.158,0.327,0.304,0.274,0.224,-0.086,-0.231,-0.111
'0:00.548',0.208,0.278,0.070,-0.243,0.069,0.173,0.321,0.153,0.324,0.305,0.273,0.225,-0.086,-0.237,-0.108
'0:00.549',0.203,0.267,0.063,-0.235,0.070,0.165,0.312,0.150,0.327,0.307,0.275,0.227,-0.085,-0.248,-0.102
'0:00.550',0.206,0.267,0.060,-0.237,0.073,0.164,0.302,0.142,0.323,0.307,0.277,0.231,-0.083,-0.251,-0.093
'0:00.551',0.210,0.269,0.059,-0.239,0.075,0.163,0.291,0.134,0.320,0.308,0.276,0.232,-0.082,-0.254,-0.087
'0:00.552',0.210,0.266,0.055,-0.238,0.077,0.160,0.280,0.136,0.323,0.310,0.277,0.234,-0.081,-0.256,-0.084
'0:00.553',0.216,0.263,0.047,-0.240,0.085,0.155,0.268,0.130,0.321,0.310,0.277,0.235,-0.076,-0.268,-0.077
'0:00.554',0.219,0.267,0.048,-0.243,0.085,0.157,0.267,0.130,0.321,0.314,0.279,0.237,-0.072,-0.266,-0.074
'0:00.555',0.215,0.260,0.044,-0.238,0.086,0.151,0.261,0.122,0.315,0.313,0.277,0.238,-0.073,-0.270,-0.069
'0:00.556',0.209,0.248,0.038,-0.229,0.086,0.143,0.257,0.116,0.308,0.311,0.273,0.235,-0.077,-0.281,-0.062
'0:00.557',0.206,0.248,0.043,-0.228,0.082,0.145,0.260,0.121,0.314,0.316,0.278,0.240,-0.074,-0.284,-0.061
'0:00.558',0.209,0.252,0.043,-0.231,0.084,0.147,0.255,0.118,0.314,0.316,0.277,0.240,-0.073,-0.281,-0.059
'0:00.559',0.213,0.257,0.043,-0.235,0.085,0.150,0.247,0.116,0.310,0.310,0.275,0.237,-0.070,-0.270,-0.057
'0:00.560',0.223,0.264,0.041,-0.243,0.090,0.152,0.242,0.116,0.309,0.312,0.277,0.238,-0.065,-0.268,-0.056
'0:00.561',0.226,0.264,0.038,-0.245,0.093,0.151,0.241,0.110,0.305,0.308,0.277,0.237,-0.065,-0.266,-0.055
'0:00.562',0.228,0.270,0.042,-0.249,0.093,0.155,0.242,0.116,0.313,0.314,0.282,0.241,-0.059,-0.257,-0.057
'0:00.563',0.228,0.276,0.048,-0.253,0.090,0.162,0.242,0.120,0.318,0.320,0.287,0.246,-0.055,-0.253,-0.057
'0:00.564',0.231,0.278,0.046,-0.255,0.092,0.162,0.238,0.115,0.312,0.314,0.281,0.244,-0.058,-0.251,-0.055
'0:00.565',0.240,0.284,0.044,-0.263,0.098,0.164,0.233,0.111,0.311,0.314,0.282,0.244,-0.055,-0.245,-0.052
'0:00.566',0.247,0.297,0.050,-0.273,0.099,0.173,0.229,0.105,0.310,0.311,0.285,0.244,-0.052,-0.233,-0.050
'0:00.567',0.260,0.304,0.044,-0.282,0.107,0.174,0.224,0.098,0.306,0.307,0.281,0.241,-0.051,-0.227,-0.049
'0:00.568',0.265,0.305,0.041,-0.285,0.112,0.173,0.223,0.098,0.306,0.309,0.283,0.244,-0.052,-0.232,-0.047
'0:00.569',0.261,0.303,0.043,-0.282,0.109,0.173,0.229,0.103,0.310,0.315,0.288,0.250,-0.056,-0.239,-0.046
'0:00.570',0.264,0.302,0.038,-0.283,0.113,0.170,0.233,0.104,0.310,0.319,0.290,0.253,-0.056,-0.245,-0.045
'0:00.571',0.265,0.301,0.036,-0.283,0.114,0.169,0.235,0.104,0.310,0.320,0.290,0.256,-0.054,-0.246,-0.043
'0:00.572',0.261,0.298,0.037,-0.280,0.112,0.168,0.234,0.103,0.311,0.323,0.293,0.259,-0.054,-0.246,-0.038
'0:00.573',0.262,0.299,0.038,-0.281,0.112,0.169,0.233,0.100,0.307,0.321,0.291,0.258,-0.056,-0.245,-0.036
'0:00.574',0.266,0.297,0.032,-0.281,0.117,0.164,0.234,0.099,0.304,0.317,0.287,0.254,-0.057,-0.249,-0.039
'0:00.575',0.263,0.290,0.028,-0.277,0.117,0.159,0.239,0.102,0.308,0.323,0.291,0.257,-0.058,-0.259,-0.040
'0:00.576',0.254,0.281,0.028,-0.268,0.113,0.154,0.246,0.106,0.309,0.325,0.290,0.258,-0.060,-0.265,-0.042
'0:00.577',0.250,0.271,0.021,-0.261,0.115,0.145,0.250,0.110,0.309,0.324,0.288,0.257,-0.059,-0.276,-0.042
'0:00.578',0.248,0.265,0.016,-0.257,0.116,0.141,0.251,0.112,0.309,0.324,0.287,0.254,-0.057,-0.277,-0.043
'0:00.579',0.246,0.259,0.012,-0.253,0.117,0.136,0.249,0.103,0.301,0.317,0.280,0.245,-0.059,-0.274,-0.044
'0:00.580',0.244,0.254,0.009,-0.249,0.117,0.131,0.249,0.101,0.302,0.315,0.281,0.244,-0.059,-0.281,-0.045
'0:00.581',0.249,0.256,0.006,-0.253,0.121,0.131,0.253,0.111,0.307,0.318,0.281,0.244,-0.058,-0.286,-0.049
'0:00.582',0.252,0.260,0.009,-0.256,0.121,0.134,0.253,0.106,0.306,0.317,0.281,0.243,-0.058,-0.287,-0.048
'0:00.583',0.254,0.258,0.004,-0.256,0.124,0.132,0.255,0.105,0.308,0.316,0.283,0.244,-0.059,-0.287,-0.048
'0:00.584',0.267,0.262,-0.005,-0.265,0.136,0.128,0.249,0.104,0.308,0.314,0.282,0.245,-0.056,-0.288,-0.043
'0:00.585',0.267,0.267,0.000,-0.267,0.134,0.134,0.245,0.092,0.302,0.307,0.277,0.241,-0.059,-0.286,-0.041
'0:00.586',0.265,0.265,0.000,-0.265,0.132,0.133,0.249,0.091,0.297,0.299,0.271,0.234,-0.063,-0.287,-0.041
'0:00.587',0.269,0.263,-0.005,-0.266,0.137,0.129,0.248,0.092,0.298,0.300,0.273,0.234,-0.064,-0.292,-0.043
'0:00.588',0.272,0.262,-0.010,-0.267,0.141,0.126,0.252,0.101,0.302,0.303,0.276,0.237,-0.062,-0.297,-0.047
'0:00.589',0.268,0.252,-0.016,-0.260,0.141,0.118,0.259,0.103,0.304,0.306,0.277,0.239,-0.062,-0.308,-0.048
'0:00.590',0.264,0.247,-0.017,-0.256,0.141,0.115,0.263,0.105,0.305,0.310,0.279,0.239,-0.064,-0.314,-0.047
'0:00.591',0.263,0.244,-0.018,-0.254,0.140,0.113,0.264,0.106,0.304,0.308,0.277,0.237,-0.065,-0.311,-0.045
'0:00.592',0.254,0.235,-0.019,-0.244,0.137,0.108,0.262,0.103,0.302,0.306,0.277,0.238,-0.066,-0.312,-0.046
'0:00.593',0.249,0.233,-0.018,-0.241,0.133,0.107,0.263,0.108,0.305,0.309,0.277,0.239,-0.065,-0.309,-0.051
'0:00.594',0.248,0.235,-0.013,-0.242,0.131,0.111,0.264,0.107,0.305,0.312,0.278,0.240,-0.061,-0.303,-0.053
'0:00.595',0.244,0.234,-0.011,-0.239,0.127,0.111,0.261,0.106,0.304,0.313,0.277,0.242,-0.061,-0.300,-0.050
'0:00.596',0.237,0.221,-0.016,-0.229,0.126,0.102,0.261,0.104,0.301,0.314,0.274,0.242,-0.064,-0.311,-0.046
'0:00.597',0.236,0.220,-0.017,-0.228,0.126,0.102,0.261,0.104,0.302,0.319,0.278,0.247,-0.060,-0.312,-0.047
'0:00.598',0.239,0.221,-0.018,-0.230,0.129,0.101,0.260,0.105,0.304,0.320,0.280,0.247,-0.057,-0.306,-0.049
'0:00.599',0.237,0.222,-0.015,-0.230,0.127,0.103,0.257,0.102,0.303,0.315,0.275,0.240,-0.059,-0.302,-0.053
'0:00.600',0.235,0.231,-0.005,-0.233,0.119,0.113,0.255,0.102,0.308,0.317,0.276,0.239,-0.059,-0.294,-0.055
'0:00.601',0.234,0.229,-0.005,-0.232,0.119,0.112,0.256,0.102,0.308,0.319,0.278,0.240,-0.058,-0.295,-0.057
'0:00.602',0.236,0.231,-0.005,-0.234,0.120,0.112,0.259,0.103,0.309,0.317,0.277,0.239,-0.059,-0.296,-0.059
'0:00.603',0.235,0.225,-0.011,-0.230,0.122,0.107,0.261,0.102,0.306,0.313,0.274,0.237,-0.059,-0.303,-0.059
'0:00.604',0.235,0.222,-0.014,-0.229,0.124,0.103,0.258,0.099,0.304,0.309,0.270,0.234,-0.061,-0.307,-0.056
'0:00.605',0.233,0.227,-0.006,-0.231,0.120,0.110,0.263,0.100,0.303,0.305,0.268,0.231,-0.065,-0.304,-0.057
'0:00.606',0.228,0.229,0.001,-0.229,0.114,0.115,0.265,0.095,0.296,0.295,0.259,0.223,-0.072,-0.299,-0.059
'0:00.607',0.226,0.234,0.008,-0.230,0.108,0.121,0.269,0.096,0.295,0.290,0.254,0.216,-0.079,-0.297,-0.060
'0:00.608',0.217,0.231,0.014,-0.225,0.102,0.122,0.279,0.100,0.295,0.288,0.251,0.214,-0.086,-0.303,-0.059
'0:00.609',0.211,0.225,0.013,-0.218,0.100,0.118,0.283,0.102,0.292,0.289,0.247,0.215,-0.089,-0.309,-0.056
'0:00.610',0.203,0.217,0.015,-0.210,0.093,0.117,0.287,0.102,0.293,0.290,0.248,0.215,-0.094,-0.314,-0.055
'0:00.611',0.197,0.212,0.015,-0.205,0.090,0.114,0.288,0.099,0.289,0.285,0.245,0.211,-0.099,-0.317,-0.053
'0:00.612',0.195,0.208,0.013,-0.202,0.091,0.111,0.288,0.096,0.282,0.281,0.240,0.210,-0.102,-0.318,-0.052
'0:00.613',0.189,0.208,0.018,-0.199,0.085,0.114,0.286,0.094,0.281,0.279,0.239,0.206,-0.106,-0.312,-0.052
'0:00.614',0.184,0.208,0.024,-0.197,0.080,0.116,0.291,0.095,0.281,0.280,0.239,0.207,-0.108,-0.315,-0.051
'0:00.615',0.178,0.203,0.025,-0.191,0.076,0.113,0.295,0.095,0.280,0.282,0.239,0.209,-0.112,-0.325,-0.048
'0:00.616',0.176,0.198,0.021,-0.187,0.077,0.110,0.300,0.101,0.281,0.284,0.240,0.211,-0.111,-0.329,-0.048
'0:00.617',0.175,0.195,0.019,-0.185,0.078,0.107,0.304,0.102,0.282,0.286,0.240,0.212,-0.108,-0.336,-0.049
'0:00.618',0.172,0.196,0.022,-0.184,0.075,0.109,0.304,0.098,0.281,0.285,0.239,0.210,-0.110,-0.332,-0.049
'0:00.619',0.173,0.200,0.026,-0.187,0.073,0.113,0.302,0.099,0.281,0.284,0.238,0.208,-0.110,-0.324,-0.052
'0:00.620',0.173,0.201,0.028,-0.187,0.072,0.114,0.297,0.099,0.281,0.282,0.237,0.204,-0.110,-0.326,-0.052
'0:00.621',0.170,0.198,0.029,-0.184,0.070,0.114,0.299,0.097,0.277,0.278,0.234,0.203,-0.110,-0.328,-0.053
'0:00.622',0.171,0.201,0.030,-0.185,0.070,0.116,0.297,0.097,0.277,0.278,0.235,0.203,-0.110,-0.327,-0.054
'0:00.623',0.172,0.202,0.029,-0.187,0.071,0.116,0.298,0.098,0.279,0.279,0.236,0.205,-0.107,-0.329,-0.054
'0:00.624',0.174,0.198,0.024,-0.186,0.074,0.111,0.299,0.096,0.275,0.276,0.232,0.202,-0.109,-0.330,-0.053
'0:00.625',0.180,0.203,0.022,-0.192,0.079,0.113,0.296,0.093,0.272,0.271,0.229,0.197,-0.108,-0.325,-0.049
'0:00.626',0.188,0.208,0.019,-0.199,0.084,0.114,0.298,0.089,0.269,0.267,0.225,0.194,-0.111,-0.323,-0.053
'0:00.627',0.190,0.207,0.017,-0.199,0.086,0.112,0.295,0.088,0.272,0.270,0.228,0.195,-0.108,-0.324,-0.057
'0:00.628',0.190,0.209,0.020,-0.200,0.085,0.115,0.294,0.096,0.277,0.277,0.233,0.201,-0.105,-0.322,-0.056
'0:00.629',0.190,0.204,0.015,-0.198,0.087,0.110,0.296,0.098,0.275,0.274,0.230,0.199,-0.108,-0.329,-0.056
'0:00.630',0.187,0.199,0.011,-0.193,0.087,0.105,0.301,0.098,0.278,0.276,0.233,0.203,-0.106,-0.335,-0.056
'0:00.631',0.181,0.194,0.013,-0.188,0.084,0.103,0.302,0.099,0.279,0.279,0.234,0.203,-0.108,-0.333,-0.054
'0:00.632',0.175,0.184,0.009,-0.180,0.083,0.097,0.297,0.098,0.274,0.275,0.229,0.198,-0.112,-0.336,-0.053
'0:00.633',0.172,0.183,0.011,-0.178,0.080,0.098,0.297,0.094,0.272,0.275,0.229,0.201,-0.110,-0.336,-0.053
'0:00.634',0.172,0.185,0.013,-0.179,0.080,0.100,0.293,0.095,0.273,0.276,0.228,0.200,-0.110,-0.337,-0.054
'0:00.635',0.167,0.180,0.013,-0.173,0.077,0.097,0.297,0.098,0.274,0.277,0.227,0.202,-0.112,-0.341,-0.056
'0:00.636',0.160,0.171,0.011,-0.166,0.074,0.090,0.302,0.099,0.277,0.281,0.228,0.204,-0.110,-0.347,-0.056
'0:00.637',0.155,0.166,0.010,-0.161,0.072,0.088,0.300,0.100,0.277,0.281,0.228,0.203,-0.109,-0.351,-0.056
'0:00.638',0.149,0.164,0.014,-0.157,0.068,0.088,0.298,0.098,0.273,0.277,0.227,0.201,-0.112,-0.343,-0.057
'0:00.639',0.149,0.169,0.019,-0.159,0.065,0.094,0.298,0.095,0.273,0.274,0.226,0.196,-0.112,-0.331,-0.058
'0:00.640',0.151,0.176,0.025,-0.164,0.063,0.101,0.297,0.095,0.274,0.274,0.227,0.198,-0.111,-0.328,-0.059
'0:00.641',0.154,0.179,0.025,-0.168,0.065,0.102,0.294,0.095,0.275,0.275,0.228,0.198,-0.111,-0.327,-0.057
'0:00.642',0.155,0.183,0.029,-0.170,0.063,0.106,0.293,0.093,0.275,0.274,0.229,0.198,-0.112,-0.321,-0.055
'0:00.643',0.157,0.184,0.027,-0.171,0.065,0.105,0.294,0.095,0.277,0.276,0.230,0.200,-0.110,-0.324,-0.057
'0:00.644',0.160,0.186,0.026,-0.173,0.067,0.106,0.294,0.095,0.278,0.277,0.231,0.199,-0.107,-0.325,-0.054
'0:00.645',0.160,0.191,0.030,-0.175,0.065,0.111,0.292,0.093,0.277,0.276,0.229,0.197,-0.105,-0.322,-0.055
'0:00.646',0.164,0.195,0.031,-0.180,0.067,0.113,0.290,0.090,0.274,0.270,0.227,0.193,-0.104,-0.317,-0.055
'0:00.647',0.169,0.201,0.032,-0.184,0.068,0.116,0.290,0.090,0.273,0.269,0.228,0.193,-0.105,-0.316,-0.057
'0:00.648',0.172,0.199,0.026,-0.186,0.072,0.113,0.293,0.094,0.278,0.276,0.234,0.197,-0.103,-0.320,-0.060
'0:00.649',0.170,0.194,0.024,-0.182,0.072,0.109,0.295,0.095,0.278,0.278,0.234,0.199,-0.102,-0.323,-0.059
'0:00.650',0.168,0.190,0.022,-0.179,0.072,0.106,0.298,0.098,0.278,0.277,0.233,0.198,-0.104,-0.331,-0.059
'0:00.651',0.172,0.190,0.018,-0.181,0.076,0.104,0.299,0.100,0.280,0.278,0.233,0.199,-0.106,-0.331,-0.059
'0:00.652',0.168,0.184,0.018,-0.176,0.075,0.101,0.298,0.103,0.281,0.280,0.234,0.200,-0.105,-0.332,-0.058
'0:00.653',0.162,0.181,0.021,-0.172,0.070,0.101,0.301,0.100,0.282,0.282,0.235,0.199,-0.106,-0.331,-0.060
'0:00.654',0.162,0.185,0.024,-0.174,0.069,0.104,0.305,0.099,0.280,0.281,0.234,0.200,-0.108,-0.334,-0.060
'0:00.655',0.159,0.181,0.023,-0.171,0.068,0.102,0.310,0.105,0.280,0.281,0.235,0.200,-0.111,-0.340,-0.061
'0:00.656',0.157,0.175,0.019,-0.167,0.069,0.097,0.313,0.111,0.283,0.286,0.235,0.200,-0.113,-0.343,-0.065
'0:00.657',0.146,0.168,0.021,-0.157,0.062,0.094,0.322,0.119,0.286,0.286,0.232,0.200,-0.114,-0.347,-0.066
'0:00.658',0.141,0.166,0.025,-0.153,0.058,0.096,0.330,0.123,0.290,0.285,0.230,0.196,-0.116,-0.344,-0.070
'0:00.659',0.145,0.169,0.023,-0.157,0.060,0.096,0.327,0.122,0.285,0.278,0.223,0.186,-0.119,-0.344,-0.073
'0:00.660',0.140,0.166,0.025,-0.153,0.057,0.096,0.336,0.133,0.290,0.277,0.221,0.182,-0.122,-0.344,-0.080
'0:00.661',0.145,0.170,0.025,-0.158,0.059,0.098,0.344,0.149,0.302,0.281,0.224,0.182,-0.122,-0.343,-0.091
'0:00.662',0.141,0.172,0.030,-0.157,0.056,0.101,0.354,0.164,0.310,0.283,0.223,0.178,-0.124,-0.342,-0.100
'0:00.663',0.131,0.165,0.035,-0.147,0.048,0.100,0.369,0.177,0.314,0.280,0.220,0.173,-0.133,-0.343,-0.108
'0:00.664',0.121,0.157,0.036,-0.139,0.043,0.097,0.391,0.202,0.315,0.270,0.206,0.159,-0.146,-0.346,-0.122
'0:00.665',0.117,0.150,0.034,-0.134,0.041,0.092,0.419,0.236,0.324,0.262,0.194,0.142,-0.160,-0.350,-0.144
'0:00.666',0.129,0.150,0.021,-0.140,0.053,0.086,0.434,0.261,0.332,0.253,0.179,0.125,-0.170,-0.356,-0.166
'0:00.667',0.140,0.149,0.010,-0.145,0.065,0.080,0.453,0.292,0.346,0.254,0.171,0.114,-0.176,-0.362,-0.186
'0:00.668',0.142,0.147,0.006,-0.145,0.068,0.077,0.472,0.327,0.368,0.266,0.175,0.115,-0.176,-0.369,-0.203
'0:00.669',0.142,0.147,0.005,-0.145,0.069,0.076,0.485,0.351,0.390,0.284,0.187,0.121,-0.172,-0.379,-0.214
'0:00.670',0.147,0.148,0.001,-0.148,0.072,0.074,0.489,0.377,0.414,0.305,0.202,0.130,-0.163,-0.381,-0.224
'0:00.671',0.155,0.146,-0.009,-0.151,0.082,0.069,0.483,0.393,0.442,0.332,0.223,0.144,-0.145,-0.384,-0.231
'0:00.672',0.171,0.149,-0.022,-0.160,0.097,0.064,0.468,0.398,0.465,0.359,0.247,0.161,-0.124,-0.386,-0.236
'0:00.673',0.191,0.171,-0.020,-0.181,0.105,0.075,0.452,0.425,0.505,0.398,0.281,0.183,-0.099,-0.374,-0.254
'0:00.674',0.206,0.196,-0.011,-0.202,0.108,0.093,0.459,0.465,0.553,0.443,0.321,0.208,-0.072,-0.355,-0.284
'0:00.675',0.220,0.211,-0.009,-0.216,0.115,0.101,0.452,0.473,0.582,0.482,0.355,0.236,-0.044,-0.341,-0.295
'0:00.676',0.240,0.232,-0.008,-0.236,0.123,0.112,0.430,0.478,0.617,0.530,0.406,0.275,-0.009,-0.327,-0.303
'0:00.677',0.256,0.255,-0.002,-0.256,0.129,0.127,0.421,0.490,0.650,0.575,0.451,0.308,0.024,-0.303,-0.316
'0:00.678',0.279,0.293,0.013,-0.286,0.133,0.153,0.396,0.480,0.678,0.622,0.500,0.347,0.064,-0.265,-0.318
'0:00.679',0.316,0.335,0.018,-0.326,0.148,0.176,0.369,0.477,0.715,0.674,0.558,0.391,0.111,-0.233,-0.325
'0:00.680',0.347,0.370,0.022,-0.359,0.162,0.196,0.355,0.480,0.750,0.725,0.610,0.429,0.152,-0.203,-0.338
'0:00.681',0.387,0.417,0.030,-0.402,0.178,0.224,0.321,0.460,0.791,0.791,0.680,0.482,0.203,-0.165,-0.345
'0:00.682',0.430,0.469,0.037,-0.450,0.197,0.253,0.268,0.412,0.819,0.853,0.750,0.537,0.257,-0.131,-0.331
'0:00.683',0.474,0.511,0.037,-0.493,0.218,0.274,0.200,0.327,0.826,0.903,0.815,0.590,0.309,-0.104,-0.295
'0:00.684',0.530,0.545,0.015,-0.538,0.258,0.280,0.141,0.273,0.864,0.981,0.896,0.652,0.373,-0.092,-0.269
'0:00.685',0.578,0.581,0.003,-0.580,0.287,0.291,0.086,0.214,0.890,1.045,0.965,0.704,0.430,-0.067,-0.244
'0:00.686',0.629,0.622,-0.007,-0.625,0.318,0.306,0.017,0.142,0.910,1.103,1.035,0.758,0.489,-0.028,-0.213
'0:00.687',0.704,0.674,-0.029,-0.689,0.365,0.322,-0.058,0.101,0.970,1.200,1.136,0.832,0.567,-0.002,-0.185
'0:00.688',0.771,0.715,-0.057,-0.743,0.413,0.329,-0.140,0.047,1.014,1.291,1.233,0.907,0.645,0.014,-0.148
'0:00.689',0.819,0.752,-0.066,-0.786,0.443,0.343,-0.209,-0.010,1.040,1.361,1.310,0.974,0.710,0.042,-0.113
'0:00.690',0.870,0.794,-0.075,-0.833,0.472,0.359,-0.287,-0.076,1.056,1.415,1.373,1.026,0.762,0.068,-0.070
'0:00.691',0.925,0.836,-0.089,-0.880,0.507,0.373,-0.374,-0.144,1.064,1.463,1.431,1.079,0.816,0.098,-0.015
'0:00.692',0.965,0.876,-0.089,-0.921,0.526,0.394,-0.444,-0.208,1.060,1.494,1.474,1.124,0.855,0.130,0.034
'0:00.693',1.004,0.903,-0.102,-0.954,0.552,0.401,-0.504,-0.261,1.059,1.527,1.516,1.162,0.890,0.145,0.075
'0:00.694',1.032,0.929,-0.103,-0.981,0.568,0.413,-0.553,-0.302,1.061,1.557,1.554,1.196,0.923,0.165,0.110
'0:00.695',1.042,0.938,-0.104,-0.990,0.573,0.416,-0.579,-0.318,1.071,1.579,1.578,1.218,0.940,0.173,0.132
'0:00.696',1.058,0.950,-0.108,-1.004,0.583,0.420,-0.606,-0.331,1.075,1.598,1.602,1.242,0.959,0.184,0.152
'0:00.697',1.076,0.975,-0.102,-1.026,0.589,0.436,-0.640,-0.362,1.067,1.616,1.632,1.275,0.986,0.204,0.179
'0:00.698',1.085,0.983,-0.102,-1.034,0.594,0.440,-0.661,-0.383,1.054,1.615,1.641,1.290,1.000,0.211,0.204
'0:00.699',1.083,0.965,-0.118,-1.024,0.601,0.422,-0.661,-0.393,1.028,1.595,1.627,1.284,1.000,0.196,0.225
'0:00.700',1.088,0.935,-0.152,-1.012,0.620,0.392,-0.662,-0.406,0.999,1.573,1.612,1.277,1.000,0.166,0.247
'0:00.701',1.076,0.926,-0.149,-1.002,0.613,0.388,-0.669,-0.465,0.912,1.499,1.559,1.253,0.969,0.157,0.284
'0:00.702',1.028,0.917,-0.111,-0.974,0.570,0.403,-0.656,-0.544,0.781,1.387,1.481,1.218,0.911,0.164,0.327
'0:00.703',0.967,0.900,-0.067,-0.933,0.516,0.416,-0.635,-0.628,0.632,1.249,1.378,1.171,0.840,0.170,0.376
'0:00.704',0.910,0.870,-0.041,-0.890,0.474,0.414,-0.614,-0.685,0.510,1.119,1.268,1.108,0.762,0.162,0.417
'0:00.705',0.872,0.810,-0.061,-0.841,0.466,0.374,-0.588,-0.708,0.433,1.022,1.179,1.046,0.698,0.118,0.445
'0:00.706',0.828,0.751,-0.076,-0.789,0.452,0.337,-0.566,-0.750,0.312,0.885,1.061,0.978,0.624,0.075,0.483
'0:00.707',0.775,0.717,-0.058,-0.746,0.416,0.329,-0.555,-0.804,0.178,0.735,0.936,0.912,0.545,0.054,0.527
'0:00.708',0.742,0.685,-0.057,-0.714,0.399,0.314,-0.548,-0.821,0.105,0.639,0.853,0.869,0.497,0.025,0.553
'0:00.709',0.703,0.648,-0.055,-0.676,0.379,0.296,-0.526,-0.828,0.019,0.527,0.748,0.811,0.433,-0.008,0.576
'0:00.710',0.659,0.610,-0.049,-0.634,0.353,0.281,-0.500,-0.863,-0.121,0.361,0.603,0.733,0.345,-0.039,0.612
'0:00.711',0.613,0.560,-0.053,-0.587,0.333,0.254,-0.462,-0.869,-0.225,0.226,0.477,0.659,0.267,-0.077,0.628
'0:00.712',0.560,0.515,-0.045,-0.538,0.303,0.234,-0.404,-0.834,-0.261,0.154,0.399,0.603,0.205,-0.102,0.615
'0:00.713',0.521,0.481,-0.040,-0.502,0.281,0.221,-0.351,-0.798,-0.284,0.101,0.338,0.554,0.153,-0.124,0.596
'0:00.714',0.486,0.450,-0.036,-0.468,0.261,0.206,-0.295,-0.759,-0.301,0.055,0.282,0.507,0.106,-0.143,0.576
'0:00.715',0.447,0.418,-0.029,-0.433,0.237,0.195,-0.234,-0.700,-0.290,0.036,0.243,0.469,0.066,-0.162,0.546
'0:00.716',0.404,0.400,-0.004,-0.402,0.204,0.198,-0.171,-0.634,-0.270,0.025,0.212,0.436,0.027,-0.168,0.507
'0:00.717',0.365,0.386,0.020,-0.376,0.172,0.203,-0.111,-0.567,-0.241,0.024,0.192,0.407,-0.004,-0.166,0.466
'0:00.718',0.331,0.368,0.037,-0.349,0.146,0.203,-0.065,-0.499,-0.199,0.035,0.183,0.381,-0.028,-0.167,0.422
'0:00.719',0.313,0.357,0.044,-0.336,0.135,0.201,-0.026,-0.440,-0.159,0.051,0.182,0.359,-0.043,-0.165,0.380
'0:00.720',0.303,0.342,0.038,-0.323,0.132,0.190,0.012,-0.380,-0.121,0.063,0.177,0.335,-0.057,-0.177,0.341
'0:00.721',0.299,0.323,0.024,-0.311,0.138,0.173,0.048,-0.317,-0.077,0.079,0.171,0.309,-0.070,-0.202,0.301
'0:00.722',0.303,0.306,0.003,-0.304,0.149,0.154,0.070,-0.263,-0.040,0.097,0.171,0.290,-0.076,-0.224,0.268
'0:00.723',0.287,0.293,0.005,-0.290,0.141,0.149,0.087,-0.218,-0.007,0.111,0.172,0.278,-0.085,-0.233,0.243
'0:00.724',0.276,0.287,0.012,-0.281,0.132,0.149,0.111,-0.182,0.019,0.122,0.172,0.267,-0.094,-0.238,0.220
'0:00.725',0.276,0.291,0.015,-0.283,0.131,0.152,0.125,-0.162,0.038,0.130,0.174,0.259,-0.098,-0.238,0.199
'0:00.726',0.276,0.299,0.024,-0.287,0.126,0.161,0.135,-0.143,0.056,0.136,0.177,0.256,-0.098,-0.235,0.182
'0:00.727',0.272,0.298,0.026,-0.285,0.122,0.163,0.148,-0.125,0.069,0.140,0.176,0.249,-0.101,-0.238,0.164
'0:00.728',0.267,0.292,0.025,-0.280,0.120,0.159,0.161,-0.106,0.084,0.151,0.179,0.246,-0.102,-0.246,0.149
'0:00.729',0.258,0.286,0.028,-0.273,0.115,0.157,0.174,-0.088,0.099,0.162,0.182,0.244,-0.103,-0.256,0.138
'0:00.730',0.251,0.280,0.029,-0.266,0.111,0.154,0.186,-0.070,0.112,0.170,0.187,0.239,-0.105,-0.262,0.122
'0:00.731',0.244,0.269,0.024,-0.257,0.110,0.146,0.198,-0.057,0.126,0.179,0.191,0.236,-0.105,-0.270,0.106
'0:00.732',0.234,0.258,0.024,-0.246,0.105,0.141,0.210,-0.039,0.141,0.187,0.194,0.232,-0.111,-0.278,0.090
'0:00.733',0.227,0.252,0.025,-0.239,0.101,0.138,0.225,-0.018,0.157,0.197,0.199,0.228,-0.112,-0.280,0.074
'0:00.734',0.221,0.246,0.025,-0.234,0.098,0.136,0.233,-0.006,0.168,0.205,0.200,0.227,-0.112,-0.287,0.057
'0:00.735',0.210,0.234,0.023,-0.223,0.093,0.129,0.242,0.007,0.181,0.215,0.203,0.226,-0.114,-0.299,0.042
'0:00.736',0.201,0.222,0.021,-0.211,0.089,0.121,0.256,0.024,0.197,0.226,0.210,0.226,-0.113,-0.306,0.028
'0:00.737',0.196,0.215,0.020,-0.205,0.087,0.118,0.267,0.042,0.210,0.236,0.215,0.224,-0.112,-0.311,0.013
'0:00.738',0.189,0.208,0.019,-0.199,0.085,0.114,0.275,0.054,0.219,0.241,0.215,0.218,-0.112,-0.314,0.000
'0:00.739',0.190,0.212,0.022,-0.201,0.084,0.117,0.281,0.067,0.229,0.247,0.217,0.212,-0.114,-0.310,-0.011
'0:00.740',0.187,0.212,0.025,-0.200,0.081,0.119,0.286,0.075,0.236,0.248,0.216,0.207,-0.116,-0.308,-0.021
'0:00.741',0.182,0.209,0.026,-0.196,0.078,0.117,0.291,0.076,0.236,0.244,0.214,0.203,-0.118,-0.311,-0.031
'0:00.742',0.182,0.211,0.029,-0.197,0.076,0.120,0.294,0.079,0.239,0.246,0.214,0.200,-0.119,-0.308,-0.037
'0:00.743',0.180,0.208,0.028,-0.195,0.076,0.118,0.297,0.083,0.240,0.246,0.215,0.199,-0.119,-0.304,-0.038
'0:00.744',0.183,0.209,0.026,-0.197,0.079,0.118,0.303,0.086,0.241,0.243,0.213,0.197,-0.120,-0.308,-0.040
'0:00.745',0.184,0.212,0.029,-0.199,0.077,0.120,0.302,0.088,0.242,0.239,0.208,0.192,-0.123,-0.310,-0.041
'0:00.746',0.185,0.217,0.032,-0.202,0.076,0.124,0.302,0.087,0.239,0.234,0.207,0.189,-0.124,-0.302,-0.043
'0:00.747',0.193,0.223,0.029,-0.208,0.082,0.126,0.301,0.084,0.240,0.232,0.205,0.186,-0.125,-0.302,-0.044
'0:00.748',0.199,0.226,0.027,-0.213,0.086,0.127,0.302,0.090,0.244,0.235,0.209,0.188,-0.127,-0.305,-0.047
'0:00.749',0.194,0.220,0.026,-0.206,0.084,0.123,0.307,0.096,0.248,0.237,0.212,0.191,-0.128,-0.310,-0.047
'0:00.750',0.184,0.209,0.025,-0.198,0.080,0.117,0.310,0.099,0.248,0.236,0.206,0.188,-0.132,-0.317,-0.046
'0:00.751',0.183,0.207,0.025,-0.196,0.079,0.116,0.314,0.102,0.249,0.237,0.207,0.188,-0.133,-0.318,-0.050
'0:00.752',0.182,0.201,0.018,-0.192,0.082,0.110,0.318,0.104,0.254,0.240,0.209,0.189,-0.132,-0.325,-0.051
'0:00.753',0.184,0.205,0.021,-0.195,0.082,0.113,0.321,0.111,0.257,0.241,0.211,0.189,-0.133,-0.321,-0.055
'0:00.754',0.185,0.207,0.022,-0.197,0.082,0.115,0.321,0.112,0.259,0.246,0.213,0.190,-0.132,-0.323,-0.058
'0:00.755',0.181,0.201,0.019,-0.191,0.081,0.110,0.325,0.117,0.262,0.252,0.215,0.193,-0.131,-0.331,-0.059
'0:00.756',0.175,0.193,0.017,-0.184,0.079,0.105,0.327,0.122,0.264,0.258,0.219,0.196,-0.130,-0.336,-0.060
'0:00.757',0.169,0.188,0.019,-0.178,0.075,0.103,0.330,0.124,0.267,0.261,0.220,0.195,-0.132,-0.337,-0.061
'0:00.758',0.166,0.187,0.022,-0.176,0.071,0.104,0.329,0.123,0.266,0.255,0.217,0.191,-0.134,-0.332,-0.065
'0:00.759',0.170,0.191,0.021,-0.180,0.073,0.106,0.326,0.120,0.265,0.252,0.216,0.188,-0.134,-0.330,-0.065
'0:00.760',0.172,0.196,0.023,-0.184,0.074,0.110,0.329,0.126,0.269,0.253,0.218,0.189,-0.133,-0.325,-0.066
'0:00.761',0.170,0.194,0.025,-0.182,0.072,0.110,0.329,0.124,0.269,0.254,0.216,0.187,-0.134,-0.325,-0.069
'0:00.762',0.168,0.195,0.027,-0.181,0.070,0.111,0.332,0.123,0.268,0.251,0.215,0.183,-0.134,-0.325,-0.070
'0:00.763',0.169,0.194,0.025,-0.181,0.071,0.110,0.330,0.125,0.271,0.253,0.218,0.185,-0.133,-0.323,-0.070
'0:00.764',0.176,0.198,0.021,-0.187,0.077,0.110,0.332,0.126,0.273,0.253,0.218,0.183,-0.133,-0.326,-0.071
'0:00.765',0.181,0.204,0.023,-0.193,0.079,0.114,0.334,0.128,0.274,0.249,0.218,0.182,-0.132,-0.321,-0.073
'0:00.766',0.183,0.212,0.029,-0.198,0.077,0.120,0.330,0.127,0.275,0.248,0.220,0.181,-0.133,-0.313,-0.073
'0:00.767',0.189,0.216,0.028,-0.203,0.080,0.122,0.331,0.127,0.276,0.248,0.216,0.180,-0.134,-0.315,-0.072
'0:00.768',0.185,0.213,0.028,-0.200,0.079,0.120,0.331,0.128,0.276,0.248,0.216,0.182,-0.135,-0.317,-0.075
'0:00.769',0.183,0.209,0.025,-0.197,0.079,0.117,0.335,0.132,0.279,0.255,0.221,0.185,-0.135,-0.319,-0.076
'0:00.770',0.182,0.203,0.020,-0.193,0.081,0.112,0.334,0.133,0.281,0.259,0.223,0.186,-0.132,-0.325,-0.073
'0:00.771',0.181,0.200,0.019,-0.191,0.081,0.110,0.336,0.132,0.283,0.259,0.225,0.189,-0.132,-0.327,-0.071
'0:00.772',0.182,0.200,0.018,-0.191,0.082,0.108,0.340,0.137,0.285,0.264,0.225,0.191,-0.132,-0.329,-0.071
'0:00.773',0.182,0.202,0.019,-0.193,0.082,0.111,0.338,0.144,0.286,0.263,0.224,0.188,-0.133,-0.324,-0.073
'0:00.774',0.178,0.202,0.024,-0.190,0.076,0.113,0.342,0.144,0.286,0.265,0.224,0.190,-0.133,-0.326,-0.078
'0:00.775',0.173,0.198,0.025,-0.185,0.074,0.112,0.343,0.144,0.287,0.269,0.226,0.193,-0.130,-0.332,-0.080
'0:00.776',0.172,0.193,0.021,-0.182,0.074,0.107,0.344,0.145,0.288,0.273,0.228,0.195,-0.127,-0.337,-0.078
'0:00.777',0.167,0.189,0.022,-0.178,0.072,0.105,0.347,0.148,0.288,0.275,0.227,0.197,-0.127,-0.341,-0.077
'0:00.778',0.162,0.189,0.028,-0.175,0.067,0.108,0.344,0.146,0.288,0.273,0.226,0.195,-0.128,-0.331,-0.077
'0:00.779',0.158,0.191,0.033,-0.174,0.062,0.112,0.342,0.140,0.284,0.268,0.224,0.191,-0.129,-0.327,-0.078
'0:00.780',0.161,0.197,0.036,-0.179,0.062,0.117,0.342,0.142,0.285,0.267,0.221,0.190,-0.129,-0.326,-0.078
'0:00.781',0.166,0.203,0.037,-0.184,0.064,0.120,0.340,0.144,0.289,0.268,0.222,0.189,-0.128,-0.324,-0.081
'0:00.782',0.163,0.203,0.040,-0.182,0.061,0.121,0.340,0.141,0.289,0.268,0.224,0.189,-0.129,-0.321,-0.083
'0:00.783',0.159,0.202,0.043,-0.180,0.057,0.123,0.344,0.144,0.291,0.270,0.226,0.190,-0.129,-0.317,-0.083
'0:00.784',0.168,0.207,0.039,-0.188,0.065,0.123,0.343,0.142,0.291,0.267,0.224,0.188,-0.130,-0.320,-0.083
'0:00.785',0.178,0.215,0.036,-0.197,0.071,0.126,0.337,0.140,0.289,0.264,0.222,0.185,-0.131,-0.318,-0.083
'0:00.786',0.188,0.224,0.036,-0.206,0.076,0.130,0.336,0.141,0.289,0.260,0.220,0.183,-0.130,-0.310,-0.083
'0:00.787',0.201,0.228,0.026,-0.214,0.087,0.127,0.335,0.136,0.287,0.258,0.217,0.181,-0.130,-0.307,-0.082
'0:00.788',0.198,0.230,0.032,-0.214,0.083,0.131,0.336,0.139,0.291,0.265,0.222,0.186,-0.128,-0.309,-0.083
'0:00.789',0.194,0.227,0.034,-0.210,0.080,0.130,0.342,0.147,0.294,0.270,0.227,0.192,-0.127,-0.315,-0.083
'0:00.790',0.193,0.223,0.030,-0.208,0.081,0.127,0.343,0.149,0.295,0.274,0.228,0.193,-0.128,-0.319,-0.083
'0:00.791',0.191,0.223,0.032,-0.207,0.080,0.127,0.344,0.151,0.296,0.275,0.228,0.194,-0.126,-0.321,-0.083
'0:00.792',0.193,0.220,0.028,-0.206,0.082,0.123,0.344,0.154,0.296,0.276,0.230,0.196,-0.124,-0.324,-0.080
'0:00.793',0.189,0.220,0.031,-0.205,0.079,0.126,0.346,0.154,0.297,0.278,0.233,0.198,-0.123,-0.323,-0.081
'0:00.794',0.188,0.222,0.035,-0.205,0.076,0.128,0.350,0.157,0.300,0.282,0.234,0.201,-0.121,-0.325,-0.085
'0:00.795',0.184,0.217,0.034,-0.201,0.075,0.126,0.350,0.160,0.304,0.284,0.234,0.203,-0.121,-0.326,-0.083
'0:00.796',0.179,0.210,0.030,-0.195,0.074,0.120,0.353,0.163,0.303,0.288,0.236,0.206,-0.120,-0.328,-0.082
'0:00.797',0.172,0.206,0.035,-0.190,0.069,0.120,0.357,0.165,0.306,0.292,0.240,0.209,-0.120,-0.330,-0.084
'0:00.798',0.171,0.209,0.037,-0.191,0.067,0.123,0.353,0.163,0.305,0.286,0.236,0.205,-0.121,-0.325,-0.082
'0:00.799',0.181,0.216,0.035,-0.199,0.073,0.126,0.349,0.160,0.303,0.283,0.234,0.202,-0.119,-0.319,-0.082
'0:00.800',0.183,0.223,0.040,-0.203,0.071,0.132,0.352,0.160,0.305,0.284,0.235,0.203,-0.120,-0.315,-0.084
'0:00.801',0.183,0.225,0.042,-0.204,0.070,0.134,0.350,0.160,0.302,0.283,0.234,0.203,-0.120,-0.315,-0.085
'0:00.802',0.182,0.228,0.045,-0.205,0.068,0.137,0.349,0.159,0.301,0.282,0.234,0.200,-0.120,-0.313,-0.086
'0:00.803',0.193,0.232,0.039,-0.212,0.076,0.136,0.349,0.160,0.302,0.284,0.236,0.199,-0.119,-0.315,-0.088
'0:00.804',0.204,0.231,0.026,-0.218,0.089,0.129,0.347,0.159,0.301,0.282,0.234,0.197,-0.118,-0.317,-0.087
'0:00.805',0.197,0.230,0.033,-0.213,0.082,0.131,0.346,0.157,0.302,0.278,0.234,0.195,-0.118,-0.313,-0.087
'0:00.806',0.197,0.236,0.040,-0.217,0.079,0.138,0.344,0.154,0.300,0.275,0.233,0.193,-0.118,-0.308,-0.088
'0:00.807',0.201,0.236,0.036,-0.218,0.082,0.136,0.343,0.153,0.299,0.273,0.231,0.192,-0.118,-0.309,-0.088
'0:00.808',0.198,0.232,0.034,-0.215,0.082,0.133,0.342,0.157,0.300,0.278,0.233,0.194,-0.119,-0.314,-0.087
'0:00.809',0.197,0.230,0.034,-0.213,0.081,0.132,0.344,0.159,0.303,0.282,0.236,0.197,-0.118,-0.316,-0.088
'0:00.810',0.195,0.226,0.032,-0.210,0.082,0.129,0.348,0.161,0.306,0.284,0.240,0.200,-0.118,-0.321,-0.089
'0:00.811',0.191,0.222,0.031,-0.207,0.080,0.127,0.347,0.165,0.307,0.285,0.239,0.198,-0.118,-0.325,-0.087
'0:00.812',0.186,0.217,0.031,-0.203,0.077,0.124,0.347,0.165,0.308,0.287,0.239,0.201,-0.117,-0.325,-0.088
'0:00.813',0.183,0.216,0.033,-0.200,0.075,0.125,0.347,0.164,0.306,0.286,0.238,0.200,-0.117,-0.324,-0.088
'0:00.814',0.181,0.214,0.033,-0.198,0.074,0.123,0.347,0.162,0.302,0.284,0.236,0.199,-0.118,-0.325,-0.090
'0:00.815',0.179,0.208,0.029,-0.194,0.075,0.118,0.349,0.164,0.305,0.290,0.238,0.202,-0.116,-0.327,-0.090
'0:00.816',0.174,0.201,0.026,-0.188,0.074,0.114,0.350,0.170,0.309,0.294,0.240,0.205,-0.114,-0.333,-0.088
'0:00.817',0.170,0.198,0.028,-0.184,0.071,0.113,0.353,0.172,0.309,0.295,0.242,0.204,-0.116,-0.332,-0.090
'0:00.818',0.169,0.201,0.031,-0.185,0.069,0.116,0.351,0.170,0.307,0.292,0.239,0.203,-0.117,-0.327,-0.090
'0:00.819',0.169,0.202,0.033,-0.185,0.068,0.117,0.347,0.166,0.304,0.287,0.236,0.199,-0.117,-0.322,-0.090
'0:00.820',0.172,0.205,0.033,-0.189,0.070,0.119,0.346,0.164,0.305,0.286,0.236,0.198,-0.117,-0.321,-0.091
'0:00.821',0.177,0.207,0.030,-0.193,0.073,0.119,0.344,0.166,0.304,0.287,0.236,0.198,-0.117,-0.319,-0.091
'0:00.822',0.179,0.208,0.029,-0.194,0.075,0.119,0.344,0.165,0.305,0.286,0.236,0.197,-0.118,-0.319,-0.092
'0:00.823',0.179,0.207,0.028,-0.194,0.075,0.118,0.344,0.165,0.307,0.288,0.237,0.198,-0.117,-0.324,-0.092
'0:00.824',0.178,0.205,0.028,-0.192,0.075,0.117,0.343,0.165,0.308,0.289,0.238,0.198,-0.116,-0.321,-0.091
'0:00.825',0.180,0.212,0.032,-0.196,0.073,0.122,0.340,0.163,0.307,0.285,0.237,0.196,-0.116,-0.314,-0.090
'0:00.826',0.183,0.217,0.035,-0.201,0.074,0.126,0.339,0.161,0.307,0.283,0.236,0.193,-0.117,-0.309,-0.093
'0:00.827',0.185,0.222,0.036,-0.204,0.074,0.129,0.341,0.161,0.307,0.283,0.237,0.192,-0.118,-0.306,-0.095
'0:00.828',0.183,0.221,0.037,-0.202,0.073,0.129,0.341,0.164,0.308,0.285,0.238,0.195,-0.118,-0.309,-0.095
'0:00.829',0.186,0.215,0.029,-0.201,0.078,0.122,0.344,0.171,0.314,0.293,0.243,0.200,-0.117,-0.318,-0.096
'0:00.830',0.190,0.215,0.025,-0.203,0.082,0.120,0.346,0.174,0.314,0.296,0.245,0.203,-0.116,-0.323,-0.093
'0:00.831',0.186,0.216,0.030,-0.202,0.078,0.123,0.344,0.173,0.316,0.298,0.246,0.204,-0.114,-0.320,-0.093
'0:00.832',0.188,0.216,0.029,-0.202,0.079,0.122,0.345,0.175,0.318,0.301,0.248,0.206,-0.112,-0.322,-0.095
'0:00.833',0.184,0.212,0.028,-0.199,0.079,0.119,0.345,0.175,0.320,0.301,0.246,0.206,-0.111,-0.324,-0.096
'0:00.834',0.179,0.207,0.028,-0.194,0.075,0.117,0.347,0.177,0.323,0.305,0.250,0.206,-0.112,-0.324,-0.098
'0:00.835',0.177,0.203,0.026,-0.191,0.075,0.115,0.349,0.179,0.325,0.308,0.252,0.211,-0.110,-0.330,-0.097
'0:00.836',0.174,0.198,0.024,-0.186,0.075,0.111,0.352,0.182,0.327,0.312,0.253,0.214,-0.108,-0.333,-0.096
'0:00.837',0.170,0.191,0.021,-0.180,0.074,0.106,0.354,0.183,0.325,0.312,0.254,0.213,-0.108,-0.336,-0.095
'0:00.838',0.163,0.187,0.025,-0.175,0.069,0.106,0.348,0.176,0.323,0.307,0.249,0.209,-0.109,-0.329,-0.095
'0:00.839',0.162,0.190,0.028,-0.176,0.067,0.108,0.348,0.174,0.320,0.302,0.246,0.205,-0.110,-0.321,-0.096
'0:00.840',0.165,0.192,0.027,-0.178,0.069,0.110,0.348,0.177,0.320,0.303,0.248,0.205,-0.108,-0.320,-0.096
'0:00.841',0.169,0.198,0.029,-0.183,0.070,0.113,0.346,0.176,0.321,0.305,0.247,0.204,-0.108,-0.318,-0.096
'0:00.842',0.167,0.200,0.032,-0.183,0.068,0.116,0.344,0.174,0.321,0.303,0.247,0.203,-0.109,-0.316,-0.097
'0:00.843',0.169,0.198,0.029,-0.183,0.069,0.114,0.344,0.175,0.321,0.302,0.247,0.202,-0.108,-0.314,-0.098
'0:00.844',0.170,0.197,0.028,-0.183,0.070,0.113,0.341,0.173,0.319,0.298,0.245,0.201,-0.107,-0.316,-0.097
'0:00.845',0.167,0.200,0.032,-0.183,0.068,0.116,0.337,0.174,0.320,0.294,0.243,0.200,-0.108,-0.310,-0.098
'0:00.846',0.176,0.209,0.033,-0.193,0.071,0.120,0.334,0.172,0.320,0.291,0.243,0.198,-0.107,-0.303,-0.099
'0:00.847',0.183,0.215,0.032,-0.199,0.075,0.123,0.334,0.172,0.322,0.291,0.245,0.198,-0.105,-0.303,-0.100
'0:00.848',0.182,0.214,0.032,-0.199,0.075,0.123,0.337,0.175,0.323,0.295,0.245,0.202,-0.105,-0.307,-0.101
'0:00.849',0.186,0.215,0.029,-0.201,0.078,0.122,0.338,0.181,0.325,0.301,0.249,0.207,-0.103,-0.311,-0.100
'0:00.850',0.191,0.217,0.027,-0.204,0.082,0.122,0.341,0.184,0.330,0.306,0.254,0.212,-0.102,-0.311,-0.099
'0:00.851',0.186,0.210,0.024,-0.198,0.081,0.117,0.342,0.184,0.329,0.305,0.253,0.211,-0.102,-0.315,-0.098
'0:00.852',0.182,0.204,0.022,-0.194,0.080,0.114,0.340,0.184,0.329,0.306,0.253,0.212,-0.100,-0.318,-0.097
'0:00.853',0.183,0.208,0.025,-0.196,0.080,0.116,0.340,0.183,0.329,0.308,0.253,0.212,-0.099,-0.318,-0.098
'0:00.854',0.180,0.206,0.025,-0.194,0.077,0.116,0.342,0.186,0.330,0.311,0.254,0.213,-0.099,-0.320,-0.099
'0:00.855',0.174,0.199,0.025,-0.186,0.074,0.112,0.343,0.192,0.333,0.317,0.256,0.217,-0.099,-0.321,-0.099
'0:00.856',0.172,0.193,0.021,-0.183,0.075,0.107,0.344,0.195,0.335,0.319,0.256,0.217,-0.099,-0.326,-0.100
'0:00.857',0.170,0.191,0.020,-0.180,0.075,0.105,0.345,0.196,0.335,0.322,0.256,0.219,-0.097,-0.329,-0.100
'0:00.858',0.169,0.192,0.022,-0.180,0.073,0.107,0.340,0.194,0.336,0.319,0.256,0.217,-0.096,-0.323,-0.100
'0:00.859',0.169,0.195,0.025,-0.182,0.071,0.110,0.336,0.189,0.334,0.312,0.254,0.211,-0.097,-0.319,-0.101
'0:00.860',0.172,0.199,0.028,-0.185,0.071,0.114,0.337,0.191,0.335,0.314,0.256,0.213,-0.094,-0.316,-0.101
'0:00.861',0.175,0.205,0.029,-0.190,0.073,0.117,0.336,0.190,0.336,0.316,0.257,0.213,-0.092,-0.314,-0.103
'0:00.862',0.175,0.205,0.030,-0.191,0.072,0.118,0.336,0.188,0.333,0.312,0.255,0.209,-0.096,-0.311,-0.104
'0:00.863',0.175,0.205,0.029,-0.191,0.072,0.117,0.334,0.191,0.335,0.310,0.256,0.208,-0.094,-0.312,-0.104
'0:00.864',0.175,0.205,0.030,-0.191,0.072,0.118,0.332,0.191,0.336,0.310,0.254,0.209,-0.092,-0.310,-0.102
'0:00.865',0.173,0.209,0.036,-0.192,0.069,0.122,0.331,0.189,0.335,0.309,0.254,0.208,-0.091,-0.299,-0.101
'0:00.866',0.177,0.217,0.040,-0.198,0.068,0.129,0.331,0.189,0.336,0.307,0.256,0.206,-0.091,-0.294,-0.103
'0:00.867',0.188,0.223,0.035,-0.206,0.076,0.130,0.331,0.189,0.336,0.308,0.256,0.206,-0.091,-0.293,-0.103
'0:00.868',0.191,0.221,0.029,-0.206,0.081,0.125,0.330,0.192,0.336,0.311,0.258,0.208,-0.091,-0.299,-0.105
'0:00.869',0.186,0.214,0.028,-0.201,0.079,0.121,0.333,0.197,0.341,0.320,0.260,0.211,-0.089,-0.303,-0.106
'0:00.870',0.183,0.215,0.032,-0.200,0.076,0.123,0.337,0.202,0.345,0.326,0.264,0.217,-0.087,-0.306,-0.104
'0:00.871',0.182,0.215,0.032,-0.199,0.075,0.123,0.337,0.208,0.351,0.330,0.270,0.222,-0.086,-0.310,-0.103
'0:00.872',0.186,0.214,0.029,-0.201,0.079,0.121,0.336,0.209,0.352,0.331,0.270,0.222,-0.085,-0.313,-0.104
'0:00.873',0.188,0.216,0.029,-0.203,0.079,0.123,0.335,0.211,0.354,0.334,0.270,0.224,-0.084,-0.315,-0.104
'0:00.874',0.194,0.216,0.022,-0.205,0.085,0.119,0.332,0.213,0.354,0.335,0.271,0.224,-0.084,-0.312,-0.104
'0:00.875',0.196,0.213,0.018,-0.204,0.089,0.115,0.331,0.215,0.355,0.338,0.272,0.226,-0.083,-0.316,-0.106
'0:00.876',0.191,0.210,0.019,-0.201,0.086,0.115,0.337,0.224,0.361,0.346,0.278,0.233,-0.084,-0.319,-0.109
'0:00.877',0.189,0.207,0.018,-0.199,0.085,0.113,0.338,0.225,0.363,0.346,0.279,0.234,-0.082,-0.323,-0.107
'0:00.878',0.189,0.210,0.021,-0.200,0.084,0.116,0.336,0.225,0.366,0.346,0.281,0.235,-0.077,-0.321,-0.106
'0:00.879',0.189,0.215,0.026,-0.203,0.082,0.120,0.335,0.226,0.368,0.347,0.283,0.234,-0.079,-0.311,-0.110
'0:00.880',0.191,0.218,0.027,-0.205,0.082,0.122,0.331,0.221,0.364,0.341,0.277,0.228,-0.082,-0.309,-0.110
'0:00.881',0.196,0.226,0.030,-0.211,0.083,0.128,0.331,0.222,0.366,0.342,0.277,0.229,-0.080,-0.303,-0.110
'0:00.882',0.197,0.234,0.036,-0.215,0.080,0.135,0.330,0.226,0.370,0.348,0.281,0.232,-0.077,-0.298,-0.113
'0:00.883',0.201,0.233,0.033,-0.217,0.084,0.133,0.328,0.228,0.373,0.351,0.285,0.234,-0.076,-0.302,-0.113
'0:00.884',0.203,0.233,0.029,-0.217,0.086,0.131,0.329,0.230,0.376,0.349,0.286,0.233,-0.076,-0.302,-0.112
'0:00.885',0.208,0.240,0.032,-0.225,0.088,0.136,0.326,0.229,0.376,0.348,0.284,0.232,-0.073,-0.297,-0.112
'0:00.886',0.220,0.252,0.032,-0.235,0.093,0.141,0.325,0.231,0.379,0.350,0.288,0.232,-0.071,-0.293,-0.114
'0:00.887',0.224,0.256,0.032,-0.240,0.096,0.143,0.328,0.232,0.378,0.349,0.289,0.231,-0.073,-0.292,-0.117
'0:00.888',0.228,0.256,0.028,-0.242,0.100,0.142,0.329,0.237,0.380,0.352,0.291,0.234,-0.071,-0.294,-0.118
'0:00.889',0.227,0.252,0.025,-0.239,0.101,0.139,0.333,0.244,0.389,0.363,0.300,0.243,-0.068,-0.297,-0.119
'0:00.890',0.229,0.249,0.021,-0.239,0.103,0.136,0.334,0.245,0.390,0.365,0.300,0.244,-0.067,-0.298,-0.118
'0:00.891',0.231,0.247,0.016,-0.239,0.107,0.132,0.333,0.251,0.393,0.367,0.301,0.244,-0.066,-0.299,-0.117
'0:00.892',0.233,0.247,0.014,-0.240,0.109,0.131,0.334,0.255,0.398,0.374,0.307,0.248,-0.062,-0.303,-0.119
'0:00.893',0.234,0.250,0.017,-0.242,0.108,0.134,0.334,0.257,0.399,0.374,0.308,0.249,-0.064,-0.299,-0.121
'0:00.894',0.237,0.253,0.016,-0.245,0.110,0.135,0.335,0.260,0.403,0.379,0.311,0.252,-0.063,-0.297,-0.121
'0:00.895',0.236,0.250,0.013,-0.243,0.111,0.132,0.336,0.263,0.406,0.384,0.313,0.256,-0.061,-0.302,-0.122
'0:00.896',0.232,0.240,0.009,-0.236,0.112,0.124,0.335,0.265,0.409,0.388,0.313,0.256,-0.059,-0.306,-0.122
'0:00.897',0.227,0.235,0.008,-0.232,0.110,0.122,0.334,0.267,0.409,0.392,0.312,0.255,-0.059,-0.305,-0.122
'0:00.898',0.223,0.236,0.013,-0.230,0.104,0.125,0.331,0.268,0.410,0.390,0.310,0.254,-0.059,-0.299,-0.123
'0:00.899',0.226,0.242,0.016,-0.234,0.104,0.129,0.330,0.269,0.411,0.389,0.312,0.254,-0.057,-0.292,-0.127
'0:00.900',0.228,0.245,0.018,-0.237,0.105,0.132,0.327,0.271,0.414,0.392,0.314,0.253,-0.055,-0.290,-0.128
'0:00.901',0.227,0.244,0.017,-0.236,0.105,0.131,0.322,0.268,0.414,0.390,0.312,0.251,-0.053,-0.290,-0.127
'0:00.902',0.225,0.246,0.021,-0.236,0.102,0.134,0.320,0.270,0.416,0.393,0.314,0.253,-0.050,-0.285,-0.127
'0:00.903',0.218,0.242,0.024,-0.231,0.097,0.133,0.319,0.273,0.421,0.396,0.319,0.255,-0.047,-0.282,-0.128
'0:00.904',0.218,0.238,0.019,-0.229,0.099,0.129,0.314,0.272,0.419,0.392,0.317,0.249,-0.047,-0.286,-0.130
'0:00.905',0.226,0.245,0.019,-0.236,0.103,0.133,0.311,0.272,0.418,0.387,0.314,0.246,-0.046,-0.281,-0.132
'0:00.906',0.233,0.249,0.017,-0.241,0.107,0.134,0.308,0.271,0.420,0.386,0.315,0.246,-0.043,-0.274,-0.132
'0:00.907',0.249,0.258,0.009,-0.254,0.120,0.133,0.304,0.275,0.423,0.389,0.318,0.247,-0.041,-0.272,-0.133
'0:00.908',0.258,0.264,0.006,-0.261,0.126,0.135,0.308,0.283,0.432,0.398,0.327,0.255,-0.037,-0.274,-0.134
'0:00.909',0.254,0.263,0.009,-0.259,0.122,0.136,0.310,0.292,0.441,0.408,0.335,0.264,-0.032,-0.280,-0.134
'0:00.910',0.256,0.266,0.009,-0.261,0.123,0.138,0.311,0.296,0.446,0.413,0.339,0.268,-0.030,-0.281,-0.132
'0:00.911',0.257,0.266,0.009,-0.262,0.124,0.137,0.311,0.302,0.454,0.420,0.344,0.272,-0.025,-0.281,-0.132
'0:00.912',0.259,0.263,0.004,-0.261,0.128,0.133,0.308,0.302,0.454,0.420,0.341,0.271,-0.025,-0.283,-0.132
'0:00.913',0.258,0.261,0.004,-0.259,0.127,0.132,0.309,0.303,0.457,0.422,0.341,0.272,-0.022,-0.282,-0.134
'0:00.914',0.253,0.261,0.007,-0.257,0.123,0.134,0.308,0.310,0.467,0.432,0.349,0.278,-0.017,-0.281,-0.137
'0:00.915',0.252,0.256,0.004,-0.255,0.124,0.130,0.307,0.315,0.471,0.438,0.352,0.280,-0.017,-0.283,-0.138
'0:00.916',0.254,0.250,-0.004,-0.253,0.129,0.123,0.307,0.320,0.475,0.441,0.355,0.282,-0.013,-0.288,-0.139
'0:00.917',0.253,0.249,-0.004,-0.252,0.129,0.122,0.304,0.321,0.480,0.446,0.357,0.285,-0.009,-0.284,-0.139
'0:00.918',0.252,0.252,0.000,-0.252,0.126,0.126,0.301,0.322,0.482,0.449,0.359,0.284,-0.006,-0.279,-0.140
'0:00.919',0.256,0.257,0.001,-0.257,0.128,0.129,0.297,0.324,0.483,0.448,0.359,0.284,-0.005,-0.273,-0.143
'0:00.920',0.258,0.260,0.003,-0.259,0.128,0.131,0.290,0.323,0.487,0.452,0.362,0.285,-0.004,-0.269,-0.146
'0:00.921',0.260,0.264,0.004,-0.262,0.128,0.134,0.287,0.326,0.491,0.457,0.367,0.288,0.002,-0.264,-0.147
'0:00.922',0.264,0.270,0.006,-0.267,0.129,0.138,0.285,0.331,0.495,0.461,0.373,0.291,0.005,-0.259,-0.149
'0:00.923',0.266,0.270,0.004,-0.268,0.131,0.136,0.284,0.331,0.499,0.464,0.378,0.293,0.007,-0.260,-0.149
'0:00.924',0.272,0.276,0.003,-0.274,0.134,0.140,0.278,0.335,0.505,0.469,0.382,0.295,0.012,-0.257,-0.149
'0:00.925',0.279,0.285,0.006,-0.282,0.136,0.146,0.279,0.337,0.509,0.471,0.386,0.297,0.015,-0.254,-0.152
'0:00.926',0.287,0.295,0.007,-0.291,0.140,0.151,0.277,0.339,0.511,0.472,0.388,0.297,0.016,-0.248,-0.156
'0:00.927',0.296,0.303,0.007,-0.300,0.144,0.155,0.274,0.344,0.518,0.475,0.392,0.300,0.020,-0.247,-0.156
'0:00.928',0.299,0.304,0.005,-0.302,0.147,0.154,0.276,0.346,0.526,0.485,0.399,0.306,0.024,-0.249,-0.156
'0:00.929',0.303,0.308,0.005,-0.306,0.149,0.157,0.276,0.355,0.537,0.499,0.409,0.317,0.030,-0.244,-0.155
'0:00.930',0.309,0.308,-0.001,-0.309,0.155,0.154,0.274,0.360,0.542,0.503,0.412,0.321,0.035,-0.245,-0.153
'0:00.931',0.312,0.310,-0.003,-0.311,0.158,0.154,0.270,0.366,0.551,0.514,0.421,0.324,0.039,-0.245,-0.155
'0:00.932',0.317,0.312,-0.005,-0.315,0.161,0.153,0.273,0.372,0.556,0.518,0.425,0.329,0.043,-0.248,-0.155
'0:00.933',0.323,0.317,-0.006,-0.321,0.165,0.156,0.269,0.373,0.559,0.517,0.426,0.331,0.045,-0.248,-0.157
'0:00.934',0.324,0.318,-0.006,-0.321,0.165,0.156,0.267,0.379,0.571,0.530,0.435,0.339,0.052,-0.246,-0.160
'0:00.935',0.324,0.311,-0.013,-0.318,0.168,0.149,0.268,0.383,0.577,0.538,0.440,0.344,0.056,-0.252,-0.160
'0:00.936',0.324,0.308,-0.015,-0.317,0.170,0.146,0.264,0.391,0.583,0.548,0.447,0.348,0.059,-0.254,-0.159
'0:00.937',0.323,0.304,-0.018,-0.314,0.171,0.143,0.262,0.391,0.588,0.555,0.452,0.353,0.062,-0.256,-0.156
'0:00.938',0.323,0.311,-0.011,-0.317,0.167,0.150,0.258,0.392,0.592,0.557,0.456,0.353,0.063,-0.244,-0.160
'0:00.939',0.328,0.318,-0.011,-0.323,0.170,0.153,0.252,0.394,0.597,0.559,0.458,0.351,0.066,-0.237,-0.163
'0:00.940',0.343,0.321,-0.021,-0.332,0.182,0.149,0.244,0.388,0.595,0.556,0.455,0.349,0.069,-0.238,-0.163
'0:00.941',0.354,0.329,-0.026,-0.342,0.190,0.151,0.240,0.391,0.598,0.562,0.458,0.353,0.073,-0.235,-0.164
'0:00.942',0.354,0.334,-0.021,-0.344,0.188,0.156,0.242,0.397,0.608,0.575,0.470,0.359,0.078,-0.229,-0.166
'0:00.943',0.356,0.336,-0.021,-0.346,0.188,0.158,0.241,0.400,0.612,0.580,0.475,0.364,0.082,-0.226,-0.168
'0:00.944',0.362,0.338,-0.025,-0.350,0.193,0.157,0.237,0.402,0.617,0.583,0.479,0.364,0.085,-0.224,-0.169
'0:00.945',0.367,0.345,-0.022,-0.357,0.195,0.162,0.233,0.402,0.623,0.588,0.484,0.365,0.090,-0.219,-0.172
'0:00.946',0.376,0.354,-0.021,-0.366,0.199,0.167,0.228,0.403,0.627,0.591,0.489,0.368,0.096,-0.212,-0.172
'0:00.947',0.379,0.355,-0.024,-0.367,0.202,0.166,0.224,0.401,0.628,0.591,0.491,0.368,0.096,-0.212,-0.172
'0:00.948',0.379,0.352,-0.026,-0.366,0.202,0.164,0.221,0.403,0.631,0.597,0.495,0.373,0.101,-0.220,-0.174
'0:00.949',0.382,0.353,-0.029,-0.367,0.205,0.163,0.221,0.409,0.640,0.608,0.504,0.382,0.106,-0.221,-0.172
'0:00.950',0.383,0.352,-0.030,-0.368,0.206,0.161,0.221,0.413,0.645,0.614,0.510,0.386,0.108,-0.217,-0.170
'0:00.951',0.388,0.354,-0.034,-0.371,0.210,0.160,0.222,0.419,0.654,0.623,0.518,0.391,0.114,-0.216,-0.171
'0:00.952',0.391,0.352,-0.038,-0.372,0.214,0.157,0.221,0.424,0.660,0.629,0.523,0.395,0.117,-0.221,-0.170
'0:00.953',0.389,0.353,-0.035,-0.371,0.211,0.159,0.218,0.422,0.661,0.632,0.525,0.397,0.121,-0.221,-0.171
'0:00.954',0.393,0.357,-0.035,-0.376,0.214,0.161,0.215,0.421,0.663,0.638,0.531,0.403,0.128,-0.215,-0.172
'0:00.955',0.395,0.355,-0.040,-0.375,0.216,0.158,0.215,0.428,0.668,0.647,0.536,0.409,0.130,-0.219,-0.173
'0:00.956',0.389,0.349,-0.040,-0.369,0.214,0.155,0.219,0.433,0.675,0.657,0.541,0.416,0.134,-0.228,-0.173
'0:00.957',0.388,0.345,-0.042,-0.367,0.214,0.152,0.213,0.431,0.676,0.660,0.542,0.418,0.138,-0.230,-0.172
'0:00.958',0.389,0.348,-0.040,-0.369,0.214,0.154,0.209,0.428,0.678,0.661,0.546,0.417,0.139,-0.223,-0.172
'0:00.959',0.389,0.354,-0.035,-0.372,0.211,0.160,0.207,0.431,0.681,0.663,0.549,0.416,0.142,-0.213,-0.173
'0:00.960',0.392,0.355,-0.036,-0.373,0.213,0.160,0.201,0.428,0.680,0.663,0.549,0.415,0.143,-0.208,-0.174
'0:00.961',0.399,0.361,-0.036,-0.381,0.217,0.163,0.198,0.424,0.680,0.665,0.551,0.418,0.147,-0.205,-0.174
'0:00.962',0.402,0.368,-0.034,-0.386,0.217,0.167,0.195,0.427,0.686,0.670,0.556,0.422,0.151,-0.202,-0.177
'0:00.963',0.410,0.372,-0.038,-0.392,0.224,0.167,0.194,0.429,0.694,0.678,0.564,0.427,0.156,-0.204,-0.174
'0:00.964',0.420,0.381,-0.038,-0.401,0.229,0.172,0.192,0.429,0.696,0.680,0.568,0.431,0.159,-0.198,-0.173
'0:00.965',0.424,0.389,-0.036,-0.407,0.230,0.176,0.186,0.422,0.693,0.676,0.566,0.429,0.159,-0.197,-0.176
'0:00.966',0.433,0.398,-0.036,-0.416,0.234,0.181,0.184,0.420,0.691,0.672,0.567,0.427,0.161,-0.196,-0.173
'0:00.967',0.439,0.403,-0.036,-0.421,0.237,0.183,0.180,0.425,0.697,0.679,0.573,0.430,0.164,-0.186,-0.176
'0:00.968',0.443,0.405,-0.038,-0.424,0.240,0.183,0.180,0.426,0.702,0.686,0.579,0.436,0.168,-0.192,-0.176
'0:00.969',0.446,0.405,-0.041,-0.425,0.243,0.182,0.181,0.428,0.707,0.692,0.584,0.443,0.171,-0.197,-0.172
'0:00.970',0.446,0.402,-0.045,-0.424,0.245,0.178,0.176,0.427,0.710,0.697,0.586,0.448,0.173,-0.199,-0.170
'0:00.971',0.446,0.402,-0.044,-0.424,0.245,0.179,0.177,0.428,0.708,0.697,0.591,0.451,0.175,-0.201,-0.169
'0:00.972',0.448,0.401,-0.046,-0.424,0.247,0.177,0.180,0.430,0.709,0.699,0.592,0.453,0.177,-0.198,-0.168
'0:00.973',0.448,0.403,-0.045,-0.425,0.247,0.178,0.177,0.427,0.711,0.700,0.592,0.455,0.177,-0.195,-0.169
'0:00.974',0.448,0.402,-0.046,-0.425,0.247,0.177,0.178,0.430,0.715,0.706,0.598,0.460,0.181,-0.195,-0.171
'0:00.975',0.445,0.396,-0.050,-0.420,0.247,0.173,0.182,0.435,0.719,0.714,0.601,0.463,0.181,-0.199,-0.170
'0:00.976',0.440,0.390,-0.050,-0.415,0.244,0.170,0.181,0.431,0.716,0.715,0.603,0.466,0.181,-0.203,-0.169
'0:00.977',0.440,0.388,-0.052,-0.413,0.245,0.168,0.179,0.427,0.714,0.714,0.601,0.466,0.182,-0.206,-0.168
'0:00.978',0.439,0.391,-0.048,-0.415,0.243,0.172,0.178,0.427,0.715,0.712,0.599,0.464,0.182,-0.202,-0.167
'0:00.979',0.444,0.397,-0.047,-0.420,0.245,0.174,0.173,0.422,0.712,0.710,0.600,0.462,0.184,-0.198,-0.166
'0:00.980',0.447,0.401,-0.046,-0.424,0.246,0.177,0.172,0.418,0.712,0.709,0.602,0.463,0.185,-0.197,-0.168
'0:00.981',0.446,0.404,-0.042,-0.425,0.243,0.181,0.172,0.416,0.708,0.709,0.602,0.463,0.183,-0.191,-0.168
'0:00.982',0.448,0.410,-0.037,-0.429,0.242,0.186,0.168,0.413,0.708,0.708,0.602,0.462,0.182,-0.190,-0.168
'0:00.983',0.447,0.410,-0.036,-0.429,0.241,0.187,0.169,0.411,0.709,0.709,0.605,0.464,0.186,-0.192,-0.166
'0:00.984',0.444,0.406,-0.038,-0.425,0.241,0.184,0.168,0.405,0.701,0.700,0.599,0.459,0.183,-0.191,-0.163
'0:00.985',0.451,0.413,-0.037,-0.432,0.243,0.188,0.165,0.401,0.697,0.692,0.595,0.456,0.181,-0.184,-0.164
'0:00.986',0.454,0.417,-0.036,-0.435,0.244,0.191,0.165,0.401,0.696,0.691,0.596,0.455,0.182,-0.180,-0.165
'0:00.987',0.460,0.421,-0.038,-0.441,0.248,0.192,0.161,0.398,0.692,0.688,0.592,0.450,0.181,-0.175,-0.165
'0:00.988',0.464,0.422,-0.042,-0.444,0.253,0.190,0.162,0.393,0.685,0.688,0.591,0.454,0.180,-0.178,-0.162
'0:00.989',0.460,0.415,-0.044,-0.438,0.252,0.186,0.167,0.393,0.683,0.689,0.594,0.454,0.178,-0.187,-0.161
'0:00.990',0.455,0.412,-0.043,-0.433,0.248,0.185,0.174,0.394,0.685,0.689,0.594,0.454,0.177,-0.189,-0.161
'0:00.991',0.450,0.407,-0.043,-0.428,0.246,0.182,0.170,0.388,0.680,0.683,0.590,0.454,0.174,-0.190,-0.158
'0:00.992',0.450,0.402,-0.048,-0.426,0.248,0.177,0.167,0.383,0.673,0.679,0.587,0.450,0.171,-0.194,-0.157
'0:00.993',0.444,0.402,-0.043,-0.422,0.242,0.179,0.178,0.384,0.668,0.676,0.584,0.450,0.170,-0.194,-0.159
'0:00.994',0.439,0.400,-0.038,-0.419,0.238,0.181,0.176,0.380,0.664,0.677,0.585,0.451,0.171,-0.193,-0.159
'0:00.995',0.430,0.390,-0.040,-0.410,0.234,0.175,0.186,0.380,0.661,0.677,0.584,0.451,0.168,-0.198,-0.157
'0:00.996',0.418,0.380,-0.038,-0.400,0.228,0.171,0.192,0.380,0.658,0.672,0.578,0.450,0.161,-0.203,-0.154
'0:00.997',0.412,0.376,-0.037,-0.394,0.225,0.169,0.186,0.371,0.652,0.667,0.574,0.447,0.157,-0.205,-0.153
'0:00.998',0.406,0.370,-0.035,-0.388,0.221,0.167,0.185,0.364,0.643,0.657,0.567,0.439,0.154,-0.203,-0.153
'0:00.999',0.398,0.368,-0.030,-0.383,0.213,0.169,0.184,0.355,0.633,0.647,0.559,0.431,0.150,-0.200,-0.153
'0:01.000',0.392,0.365,-0.027,-0.379,0.209,0.169,0.185,0.346,0.623,0.637,0.551,0.424,0.144,-0.199,-0.152
'0:01.001',0.391,0.364,-0.026,-0.378,0.208,0.169,0.186,0.343,0.619,0.632,0.546,0.419,0.141,-0.200,-0.152
'0:01.002',0.389,0.365,-0.024,-0.377,0.205,0.171,0.187,0.336,0.612,0.625,0.539,0.416,0.138,-0.201,-0.152
'0:01.003',0.386,0.363,-0.021,-0.374,0.203,0.171,0.188,0.333,0.604,0.618,0.534,0.413,0.135,-0.203,-0.150
'0:01.004',0.381,0.359,-0.021,-0.370,0.201,0.169,0.191,0.322,0.595,0.609,0.529,0.407,0.129,-0.203,-0.149
'0:01.005',0.379,0.359,-0.019,-0.369,0.199,0.170,0.189,0.310,0.582,0.596,0.519,0.399,0.122,-0.200,-0.147
'0:01.006',0.375,0.365,-0.011,-0.370,0.193,0.177,0.193,0.312,0.581,0.588,0.514,0.393,0.118,-0.194,-0.149
'0:01.007',0.371,0.362,-0.009,-0.367,0.190,0.177,0.198,0.306,0.573,0.580,0.508,0.387,0.112,-0.195,-0.148
'0:01.008',0.367,0.355,-0.011,-0.361,0.189,0.172,0.204,0.302,0.564,0.575,0.503,0.386,0.106,-0.201,-0.147
'0:01.009',0.362,0.351,-0.012,-0.357,0.187,0.170,0.210,0.301,0.560,0.573,0.501,0.388,0.103,-0.209,-0.144
'0:01.010',0.361,0.348,-0.012,-0.355,0.186,0.169,0.211,0.297,0.554,0.566,0.496,0.385,0.102,-0.213,-0.139
'0:01.011',0.353,0.342,-0.011,-0.348,0.182,0.166,0.217,0.293,0.547,0.560,0.489,0.380,0.096,-0.216,-0.139
'0:01.012',0.346,0.340,-0.006,-0.344,0.176,0.167,0.222,0.292,0.542,0.557,0.486,0.379,0.089,-0.221,-0.138
'0:01.013',0.347,0.342,-0.005,-0.344,0.175,0.169,0.223,0.286,0.535,0.551,0.479,0.376,0.086,-0.222,-0.136
'0:01.014',0.339,0.335,-0.003,-0.337,0.171,0.166,0.227,0.282,0.527,0.547,0.474,0.372,0.079,-0.223,-0.137
'0:01.015',0.335,0.326,-0.009,-0.331,0.172,0.158,0.232,0.280,0.518,0.541,0.464,0.367,0.073,-0.231,-0.135
'0:01.016',0.335,0.318,-0.018,-0.327,0.176,0.150,0.234,0.276,0.510,0.535,0.458,0.364,0.069,-0.238,-0.135
'0:01.017',0.320,0.308,-0.011,-0.315,0.165,0.148,0.239,0.272,0.504,0.529,0.454,0.360,0.063,-0.236,-0.134
'0:01.018',0.312,0.304,-0.009,-0.308,0.160,0.148,0.242,0.263,0.493,0.517,0.443,0.351,0.057,-0.236,-0.132
'0:01.019',0.310,0.307,-0.003,-0.309,0.157,0.152,0.242,0.257,0.488,0.511,0.440,0.346,0.051,-0.234,-0.133
'0:01.020',0.306,0.308,0.003,-0.307,0.151,0.155,0.245,0.253,0.482,0.503,0.434,0.341,0.045,-0.230,-0.133
'0:01.021',0.304,0.308,0.004,-0.306,0.150,0.156,0.247,0.246,0.473,0.493,0.427,0.335,0.040,-0.233,-0.132
'0:01.022',0.300,0.309,0.009,-0.305,0.145,0.160,0.248,0.241,0.468,0.486,0.423,0.333,0.036,-0.229,-0.129
'0:01.023',0.298,0.306,0.008,-0.302,0.145,0.157,0.251,0.237,0.462,0.479,0.416,0.328,0.033,-0.229,-0.128
'0:01.024',0.296,0.301,0.005,-0.298,0.145,0.153,0.253,0.232,0.455,0.472,0.406,0.320,0.025,-0.234,-0.126
'0:01.025',0.294,0.304,0.009,-0.299,0.142,0.157,0.252,0.226,0.447,0.464,0.401,0.316,0.022,-0.234,-0.123
'0:01.026',0.290,0.304,0.014,-0.298,0.139,0.160,0.253,0.218,0.438,0.453,0.394,0.309,0.015,-0.232,-0.124
'0:01.027',0.288,0.302,0.013,-0.295,0.138,0.158,0.255,0.213,0.433,0.446,0.388,0.306,0.011,-0.231,-0.122
'0:01.028',0.283,0.299,0.015,-0.291,0.134,0.158,0.258,0.213,0.430,0.444,0.386,0.305,0.010,-0.234,-0.122
'0:01.029',0.278,0.290,0.012,-0.284,0.133,0.151,0.262,0.212,0.424,0.441,0.381,0.303,0.006,-0.243,-0.121
'0:01.030',0.278,0.284,0.006,-0.281,0.136,0.145,0.266,0.207,0.419,0.435,0.376,0.301,0.002,-0.251,-0.117
'0:01.031',0.274,0.280,0.006,-0.277,0.133,0.143,0.270,0.205,0.416,0.431,0.372,0.298,-0.003,-0.253,-0.115
'0:01.032',0.265,0.272,0.007,-0.269,0.128,0.140,0.271,0.207,0.410,0.427,0.368,0.296,-0.004,-0.255,-0.114
'0:01.033',0.261,0.271,0.010,-0.266,0.125,0.140,0.271,0.202,0.405,0.423,0.363,0.293,-0.007,-0.257,-0.114
'0:01.034',0.256,0.268,0.013,-0.262,0.121,0.140,0.272,0.196,0.400,0.420,0.360,0.292,-0.011,-0.260,-0.113
'0:01.035',0.246,0.256,0.010,-0.251,0.117,0.133,0.273,0.196,0.395,0.416,0.357,0.290,-0.014,-0.268,-0.113
'0:01.036',0.234,0.241,0.007,-0.237,0.113,0.124,0.279,0.196,0.395,0.415,0.355,0.291,-0.016,-0.277,-0.109
'0:01.037',0.225,0.237,0.013,-0.231,0.105,0.125,0.281,0.193,0.391,0.414,0.354,0.290,-0.018,-0.280,-0.108
'0:01.038',0.223,0.237,0.014,-0.230,0.104,0.126,0.280,0.185,0.381,0.401,0.343,0.281,-0.024,-0.274,-0.107
'0:01.039',0.220,0.235,0.015,-0.228,0.102,0.126,0.276,0.178,0.373,0.389,0.335,0.273,-0.029,-0.266,-0.104
'0:01.040',0.229,0.241,0.013,-0.235,0.107,0.128,0.275,0.172,0.368,0.384,0.332,0.270,-0.030,-0.262,-0.104
'0:01.041',0.238,0.247,0.009,-0.243,0.115,0.128,0.277,0.171,0.366,0.380,0.329,0.268,-0.033,-0.263,-0.104
'0:01.042',0.233,0.248,0.015,-0.240,0.108,0.132,0.278,0.172,0.362,0.380,0.327,0.267,-0.035,-0.265,-0.104
'0:01.043',0.226,0.240,0.015,-0.233,0.105,0.127,0.278,0.168,0.357,0.376,0.322,0.264,-0.037,-0.272,-0.103
'0:01.044',0.224,0.239,0.015,-0.232,0.104,0.127,0.276,0.164,0.353,0.370,0.318,0.259,-0.039,-0.273,-0.100
'0:01.045',0.224,0.243,0.018,-0.234,0.102,0.131,0.273,0.159,0.348,0.361,0.312,0.253,-0.042,-0.270,-0.099
'0:01.046',0.227,0.246,0.019,-0.236,0.103,0.133,0.271,0.155,0.346,0.356,0.308,0.249,-0.044,-0.267,-0.099
'0:01.047',0.225,0.251,0.026,-0.238,0.099,0.139,0.274,0.155,0.344,0.355,0.307,0.248,-0.045,-0.263,-0.098
'0:01.048',0.224,0.249,0.026,-0.237,0.099,0.138,0.279,0.157,0.344,0.359,0.311,0.252,-0.046,-0.266,-0.101
'0:01.049',0.222,0.242,0.021,-0.233,0.100,0.132,0.282,0.158,0.345,0.361,0.312,0.254,-0.046,-0.273,-0.099
'0:01.050',0.213,0.234,0.020,-0.224,0.097,0.127,0.282,0.155,0.339,0.353,0.303,0.247,-0.051,-0.281,-0.097
'0:01.051',0.210,0.229,0.019,-0.220,0.096,0.124,0.283,0.154,0.336,0.352,0.302,0.247,-0.053,-0.284,-0.096
'0:01.052',0.210,0.227,0.017,-0.218,0.097,0.121,0.285,0.154,0.337,0.350,0.303,0.247,-0.054,-0.282,-0.096
'0:01.053',0.210,0.226,0.016,-0.218,0.097,0.121,0.286,0.152,0.334,0.348,0.300,0.246,-0.056,-0.283,-0.097
'0:01.054',0.209,0.227,0.017,-0.218,0.096,0.121,0.285,0.151,0.331,0.351,0.299,0.248,-0.054,-0.289,-0.096
'0:01.055',0.204,0.220,0.016,-0.212,0.093,0.118,0.289,0.152,0.332,0.353,0.301,0.249,-0.056,-0.293,-0.095
'0:01.056',0.197,0.212,0.015,-0.205,0.090,0.114,0.292,0.152,0.331,0.353,0.299,0.250,-0.058,-0.295,-0.093
'0:01.057',0.193,0.206,0.013,-0.200,0.089,0.110,0.292,0.149,0.327,0.348,0.293,0.245,-0.060,-0.297,-0.091
'0:01.058',0.186,0.202,0.015,-0.195,0.086,0.108,0.290,0.146,0.323,0.343,0.289,0.241,-0.061,-0.291,-0.090
'0:01.059',0.183,0.204,0.021,-0.194,0.081,0.113,0.290,0.141,0.319,0.337,0.285,0.236,-0.064,-0.285,-0.091
'0:01.060',0.185,0.207,0.022,-0.197,0.081,0.115,0.289,0.139,0.317,0.335,0.283,0.234,-0.064,-0.287,-0.090
'0:01.061',0.189,0.210,0.021,-0.200,0.084,0.116,0.284,0.138,0.316,0.333,0.281,0.234,-0.064,-0.284,-0.089
'0:01.062',0.190,0.209,0.019,-0.200,0.085,0.115,0.283,0.134,0.315,0.329,0.281,0.230,-0.067,-0.284,-0.090
'0:01.063',0.188,0.204,0.017,-0.196,0.085,0.111,0.285,0.133,0.311,0.324,0.278,0.228,-0.070,-0.287,-0.090
'0:01.064',0.192,0.205,0.014,-0.199,0.088,0.110,0.283,0.130,0.310,0.321,0.275,0.226,-0.071,-0.286,-0.087
'0:01.065',0.199,0.214,0.016,-0.206,0.091,0.115,0.282,0.129,0.311,0.319,0.276,0.226,-0.069,-0.285,-0.086
'0:01.066',0.203,0.222,0.019,-0.212,0.091,0.121,0.282,0.129,0.308,0.314,0.273,0.223,-0.072,-0.280,-0.088
'0:01.067',0.207,0.227,0.020,-0.217,0.093,0.123,0.280,0.126,0.307,0.310,0.271,0.223,-0.073,-0.278,-0.086
'0:01.068',0.210,0.229,0.018,-0.220,0.096,0.123,0.283,0.128,0.308,0.312,0.273,0.226,-0.072,-0.282,-0.087
'0:01.069',0.211,0.226,0.014,-0.219,0.099,0.120,0.287,0.131,0.310,0.316,0.275,0.228,-0.072,-0.292,-0.087
'0:01.070',0.211,0.222,0.011,-0.217,0.100,0.117,0.287,0.132,0.310,0.319,0.274,0.229,-0.071,-0.296,-0.086
'0:01.071',0.210,0.220,0.010,-0.215,0.100,0.115,0.289,0.133,0.310,0.320,0.274,0.230,-0.071,-0.294,-0.086
'0:01.072',0.207,0.217,0.011,-0.212,0.098,0.114,0.289,0.133,0.309,0.321,0.273,0.230,-0.072,-0.295,-0.086
'0:01.073',0.207,0.218,0.011,-0.213,0.098,0.115,0.288,0.131,0.306,0.319,0.271,0.230,-0.073,-0.296,-0.086
'0:01.074',0.206,0.218,0.012,-0.212,0.097,0.115,0.290,0.134,0.310,0.322,0.274,0.232,-0.074,-0.300,-0.084
'0:01.075',0.203,0.213,0.011,-0.208,0.096,0.112,0.292,0.134,0.312,0.325,0.276,0.234,-0.073,-0.304,-0.081
'0:01.076',0.198,0.207,0.009,-0.203,0.094,0.108,0.295,0.136,0.314,0.330,0.278,0.239,-0.072,-0.306,-0.080
'0:01.077',0.187,0.202,0.015,-0.195,0.086,0.108,0.296,0.138,0.314,0.331,0.277,0.237,-0.074,-0.305,-0.080
'0:01.078',0.185,0.202,0.016,-0.194,0.084,0.108,0.292,0.133,0.308,0.322,0.271,0.230,-0.076,-0.302,-0.081
'0:01.079',0.188,0.204,0.017,-0.197,0.085,0.111,0.288,0.127,0.304,0.317,0.267,0.227,-0.078,-0.297,-0.081
'0:01.080',0.193,0.210,0.018,-0.202,0.087,0.114,0.288,0.127,0.305,0.316,0.268,0.227,-0.077,-0.296,-0.082
'0:01.081',0.207,0.215,0.009,-0.211,0.099,0.112,0.286,0.125,0.304,0.312,0.265,0.224,-0.075,-0.295,-0.083
'0:01.082',0.207,0.215,0.008,-0.212,0.100,0.112,0.283,0.119,0.301,0.307,0.261,0.220,-0.079,-0.292,-0.083
'0:01.083',0.202,0.213,0.012,-0.208,0.095,0.113,0.285,0.121,0.302,0.308,0.264,0.222,-0.077,-0.293,-0.081
'0:01.084',0.200,0.216,0.016,-0.208,0.091,0.116,0.284,0.119,0.300,0.307,0.264,0.221,-0.078,-0.291,-0.080
'0:01.085',0.202,0.222,0.020,-0.212,0.090,0.121,0.281,0.113,0.294,0.299,0.259,0.216,-0.081,-0.285,-0.080
'0:01.086',0.208,0.230,0.022,-0.219,0.093,0.126,0.280,0.111,0.294,0.296,0.258,0.214,-0.080,-0.284,-0.080
'0:01.087',0.214,0.236,0.022,-0.226,0.096,0.130,0.280,0.114,0.296,0.298,0.259,0.215,-0.082,-0.284,-0.080
'0:01.088',0.215,0.233,0.017,-0.224,0.099,0.125,0.281,0.115,0.296,0.302,0.258,0.218,-0.082,-0.287,-0.080
'0:01.089',0.209,0.226,0.016,-0.217,0.097,0.120,0.284,0.116,0.296,0.302,0.259,0.220,-0.082,-0.293,-0.079
'0:01.090',0.205,0.220,0.015,-0.213,0.095,0.117,0.285,0.117,0.296,0.301,0.259,0.220,-0.083,-0.290,-0.077
'0:01.091',0.200,0.214,0.015,-0.207,0.092,0.115,0.281,0.116,0.296,0.303,0.260,0.220,-0.080,-0.292,-0.077
'0:01.092',0.198,0.212,0.015,-0.205,0.091,0.114,0.282,0.118,0.297,0.303,0.260,0.220,-0.082,-0.296,-0.079
'0:01.093',0.202,0.215,0.013,-0.209,0.094,0.115,0.282,0.117,0.295,0.304,0.258,0.219,-0.082,-0.296,-0.076
'0:01.094',0.198,0.213,0.016,-0.206,0.090,0.115,0.286,0.120,0.299,0.310,0.263,0.225,-0.080,-0.298,-0.077
'0:01.095',0.193,0.209,0.017,-0.201,0.088,0.113,0.287,0.122,0.298,0.314,0.265,0.227,-0.080,-0.298,-0.076
'0:01.096',0.184,0.201,0.016,-0.193,0.084,0.108,0.289,0.121,0.298,0.315,0.264,0.228,-0.081,-0.303,-0.074
'0:01.097',0.179,0.194,0.015,-0.186,0.082,0.104,0.292,0.120,0.296,0.312,0.259,0.226,-0.083,-0.304,-0.074
'0:01.098',0.185,0.198,0.013,-0.192,0.086,0.105,0.284,0.116,0.292,0.309,0.257,0.221,-0.082,-0.301,-0.074
'0:01.099',0.185,0.201,0.015,-0.194,0.085,0.108,0.282,0.115,0.293,0.308,0.258,0.221,-0.080,-0.297,-0.075
'0:01.100',0.184,0.204,0.020,-0.194,0.082,0.112,0.282,0.112,0.292,0.308,0.255,0.218,-0.083,-0.294,-0.076
'0:01.101',0.182,0.205,0.023,-0.194,0.080,0.114,0.281,0.110,0.289,0.303,0.254,0.214,-0.085,-0.292,-0.077
'0:01.102',0.180,0.203,0.024,-0.192,0.078,0.114,0.280,0.110,0.285,0.298,0.253,0.212,-0.085,-0.292,-0.076
'0:01.103',0.184,0.204,0.020,-0.195,0.082,0.112,0.279,0.110,0.287,0.299,0.254,0.212,-0.083,-0.293,-0.075
'0:01.104',0.188,0.207,0.019,-0.198,0.084,0.113,0.278,0.108,0.286,0.296,0.253,0.212,-0.083,-0.290,-0.073
'0:01.105',0.193,0.217,0.025,-0.205,0.084,0.120,0.278,0.107,0.285,0.296,0.253,0.211,-0.084,-0.283,-0.075
'0:01.106',0.203,0.225,0.021,-0.214,0.091,0.123,0.274,0.102,0.284,0.294,0.253,0.210,-0.083,-0.275,-0.075
'0:01.107',0.210,0.231,0.019,-0.221,0.095,0.125,0.273,0.100,0.283,0.292,0.253,0.209,-0.084,-0.272,-0.074
'0:01.108',0.210,0.231,0.020,-0.221,0.095,0.126,0.277,0.104,0.286,0.297,0.256,0.214,-0.084,-0.280,-0.075
'0:01.109',0.207,0.224,0.017,-0.216,0.096,0.120,0.280,0.110,0.288,0.301,0.259,0.218,-0.082,-0.290,-0.075
'0:01.110',0.206,0.223,0.017,-0.214,0.095,0.119,0.281,0.111,0.289,0.301,0.261,0.217,-0.083,-0.292,-0.074
'0:01.111',0.207,0.222,0.015,-0.214,0.096,0.118,0.281,0.110,0.289,0.302,0.261,0.220,-0.083,-0.291,-0.072
'0:01.112',0.206,0.221,0.014,-0.213,0.096,0.117,0.279,0.113,0.291,0.305,0.264,0.224,-0.080,-0.293,-0.072
'0:01.113',0.205,0.222,0.017,-0.213,0.094,0.119,0.277,0.113,0.290,0.305,0.264,0.223,-0.079,-0.292,-0.071
'0:01.114',0.202,0.217,0.016,-0.209,0.092,0.117,0.282,0.113,0.289,0.307,0.263,0.223,-0.080,-0.294,-0.071
'0:01.115',0.200,0.211,0.011,-0.206,0.095,0.111,0.286,0.118,0.292,0.313,0.265,0.227,-0.081,-0.301,-0.071
'0:01.116',0.197,0.206,0.010,-0.202,0.093,0.108,0.287,0.118,0.293,0.317,0.265,0.231,-0.081,-0.308,-0.071
'0:01.117',0.192,0.201,0.009,-0.197,0.092,0.104,0.286,0.117,0.292,0.318,0.264,0.230,-0.080,-0.309,-0.072
'0:01.118',0.190,0.199,0.009,-0.194,0.090,0.104,0.283,0.113,0.288,0.311,0.261,0.225,-0.081,-0.305,-0.072
'0:01.119',0.189,0.203,0.013,-0.196,0.088,0.108,0.279,0.111,0.285,0.306,0.259,0.222,-0.081,-0.303,-0.073
'0:01.120',0.192,0.208,0.017,-0.200,0.087,0.113,0.277,0.110,0.289,0.309,0.261,0.223,-0.079,-0.298,-0.076
'0:01.121',0.190,0.211,0.021,-0.201,0.084,0.116,0.277,0.106,0.286,0.303,0.257,0.219,-0.081,-0.297,-0.075
'0:01.122',0.189,0.210,0.021,-0.200,0.084,0.116,0.277,0.106,0.282,0.299,0.253,0.218,-0.084,-0.297,-0.075
'0:01.123',0.190,0.209,0.019,-0.200,0.085,0.115,0.280,0.106,0.285,0.301,0.256,0.219,-0.084,-0.294,-0.073
'0:01.124',0.195,0.213,0.018,-0.204,0.087,0.116,0.278,0.106,0.283,0.299,0.255,0.216,-0.083,-0.293,-0.072
'0:01.125',0.200,0.220,0.021,-0.210,0.089,0.121,0.272,0.101,0.282,0.296,0.253,0.214,-0.084,-0.287,-0.074
'0:01.126',0.205,0.230,0.025,-0.218,0.090,0.127,0.273,0.100,0.283,0.294,0.253,0.213,-0.084,-0.282,-0.072
'0:01.127',0.214,0.236,0.022,-0.225,0.096,0.129,0.275,0.102,0.281,0.297,0.255,0.216,-0.082,-0.283,-0.070
'0:01.128',0.217,0.235,0.018,-0.227,0.100,0.127,0.279,0.106,0.283,0.302,0.259,0.220,-0.081,-0.287,-0.070
'0:01.129',0.216,0.234,0.018,-0.225,0.099,0.126,0.281,0.108,0.284,0.303,0.259,0.223,-0.081,-0.292,-0.070
'0:01.130',0.213,0.229,0.016,-0.222,0.099,0.122,0.279,0.107,0.283,0.301,0.260,0.222,-0.082,-0.292,-0.069
'0:01.131',0.208,0.222,0.013,-0.215,0.098,0.117,0.281,0.107,0.283,0.303,0.260,0.221,-0.082,-0.291,-0.067
'0:01.132',0.206,0.217,0.012,-0.212,0.097,0.115,0.281,0.107,0.282,0.302,0.258,0.222,-0.083,-0.289,-0.067
'0:01.133',0.209,0.221,0.013,-0.215,0.098,0.117,0.278,0.107,0.282,0.302,0.259,0.223,-0.080,-0.292,-0.069
'0:01.134',0.207,0.219,0.012,-0.213,0.098,0.116,0.276,0.107,0.283,0.304,0.258,0.224,-0.077,-0.295,-0.070
'0:01.135',0.203,0.211,0.008,-0.207,0.097,0.110,0.279,0.107,0.282,0.305,0.258,0.226,-0.076,-0.301,-0.069
'0:01.136',0.201,0.207,0.007,-0.204,0.097,0.107,0.282,0.110,0.284,0.309,0.260,0.229,-0.075,-0.305,-0.068
'0:01.137',0.196,0.204,0.009,-0.201,0.093,0.106,0.281,0.111,0.282,0.309,0.259,0.227,-0.076,-0.302,-0.067
'0:01.138',0.191,0.202,0.011,-0.197,0.089,0.106,0.277,0.108,0.279,0.304,0.254,0.223,-0.076,-0.298,-0.066
'0:01.139',0.190,0.205,0.015,-0.198,0.087,0.111,0.275,0.103,0.277,0.300,0.250,0.219,-0.079,-0.291,-0.068
