'Elapsed time','i','ii','iii','avr','avl','avf','v1','v2','v3','v4','v5','v6','vx','vy','vz'
'hh:mm:ss.mmm','mV','mV','mV','mV','mV','mV','mV','mV','mV','mV','mV','mV','mV','mV','mV'
'0:00.000',-0.192,0.104,0.296,0.043,-0.244,0.201,-0.716,0.245,1.185,0.272,-0.074,0.274,-0.022,0.122,0.388
'0:00.001',-0.190,0.107,0.297,0.041,-0.243,0.203,-0.721,0.244,1.185,0.270,-0.075,0.270,-0.024,0.128,0.388
'0:00.002',-0.194,0.108,0.302,0.043,-0.248,0.206,-0.719,0.242,1.185,0.272,-0.077,0.265,-0.025,0.130,0.390
'0:00.003',-0.196,0.110,0.306,0.043,-0.251,0.208,-0.719,0.243,1.187,0.271,-0.083,0.262,-0.025,0.131,0.394
'0:00.004',-0.201,0.106,0.307,0.047,-0.254,0.207,-0.717,0.244,1.188,0.273,-0.081,0.261,-0.025,0.128,0.397
'0:00.005',-0.200,0.102,0.302,0.049,-0.251,0.203,-0.711,0.244,1.192,0.273,-0.078,0.264,-0.025,0.128,0.396
'0:00.006',-0.195,0.105,0.301,0.044,-0.248,0.203,-0.707,0.243,1.200,0.270,-0.080,0.262,-0.021,0.136,0.395
'0:00.007',-0.189,0.111,0.300,0.039,-0.244,0.205,-0.704,0.241,1.208,0.266,-0.082,0.262,-0.018,0.144,0.392
'0:00.008',-0.188,0.113,0.301,0.037,-0.244,0.207,-0.711,0.241,1.208,0.265,-0.084,0.259,-0.019,0.141,0.393
'0:00.009',-0.191,0.117,0.308,0.037,-0.249,0.212,-0.723,0.242,1.198,0.270,-0.084,0.257,-0.022,0.132,0.396
'0:00.010',-0.185,0.122,0.308,0.032,-0.246,0.215,-0.729,0.242,1.192,0.272,-0.083,0.259,-0.023,0.131,0.395
'0:00.011',-0.188,0.117,0.305,0.035,-0.247,0.211,-0.728,0.243,1.190,0.275,-0.080,0.260,-0.024,0.129,0.395
'0:00.012',-0.188,0.114,0.302,0.037,-0.245,0.208,-0.726,0.245,1.191,0.275,-0.077,0.261,-0.024,0.127,0.393
'0:00.013',-0.186,0.113,0.299,0.036,-0.243,0.206,-0.723,0.247,1.192,0.275,-0.075,0.264,-0.024,0.126,0.391
'0:00.014',-0.182,0.117,0.299,0.033,-0.241,0.208,-0.723,0.246,1.191,0.272,-0.075,0.265,-0.024,0.127,0.389
'0:00.015',-0.180,0.120,0.301,0.030,-0.241,0.211,-0.726,0.245,1.190,0.271,-0.079,0.261,-0.025,0.127,0.389
'0:00.016',-0.186,0.116,0.302,0.035,-0.244,0.209,-0.731,0.246,1.183,0.276,-0.078,0.263,-0.026,0.120,0.390
'0:00.017',-0.192,0.111,0.302,0.041,-0.247,0.207,-0.733,0.246,1.177,0.280,-0.079,0.264,-0.028,0.111,0.394
'0:00.018',-0.194,0.108,0.302,0.043,-0.248,0.205,-0.724,0.247,1.179,0.280,-0.077,0.265,-0.028,0.114,0.393
'0:00.019',-0.192,0.104,0.296,0.043,-0.244,0.201,-0.712,0.247,1.188,0.275,-0.075,0.267,-0.025,0.122,0.388
'0:00.020',-0.195,0.099,0.293,0.048,-0.244,0.197,-0.706,0.247,1.194,0.273,-0.076,0.265,-0.024,0.125,0.388
'0:00.021',-0.193,0.104,0.297,0.044,-0.245,0.201,-0.708,0.245,1.196,0.272,-0.078,0.264,-0.023,0.128,0.388
'0:00.022',-0.193,0.106,0.300,0.043,-0.246,0.203,-0.711,0.245,1.198,0.272,-0.081,0.261,-0.024,0.129,0.388
'0:00.023',-0.193,0.108,0.301,0.043,-0.247,0.205,-0.708,0.246,1.198,0.271,-0.084,0.257,-0.025,0.129,0.390
'0:00.024',-0.197,0.105,0.302,0.046,-0.250,0.204,-0.708,0.248,1.198,0.272,-0.085,0.254,-0.026,0.128,0.394
'0:00.025',-0.200,0.100,0.300,0.051,-0.250,0.200,-0.708,0.250,1.201,0.273,-0.083,0.258,-0.026,0.126,0.393
'0:00.026',-0.196,0.105,0.301,0.045,-0.249,0.203,-0.700,0.249,1.208,0.270,-0.085,0.257,-0.022,0.134,0.392
'0:00.027',-0.191,0.108,0.299,0.042,-0.245,0.204,-0.700,0.247,1.212,0.264,-0.088,0.254,-0.021,0.141,0.390
'0:00.028',-0.188,0.113,0.300,0.037,-0.244,0.206,-0.706,0.247,1.210,0.264,-0.089,0.252,-0.021,0.140,0.390
'0:00.029',-0.185,0.117,0.303,0.034,-0.244,0.211,-0.719,0.248,1.203,0.268,-0.091,0.251,-0.025,0.136,0.393
'0:00.030',-0.181,0.122,0.304,0.029,-0.243,0.213,-0.724,0.246,1.198,0.269,-0.088,0.253,-0.025,0.134,0.392
'0:00.031',-0.186,0.116,0.302,0.035,-0.244,0.209,-0.719,0.249,1.194,0.271,-0.085,0.254,-0.025,0.130,0.392
'0:00.032',-0.190,0.111,0.301,0.039,-0.245,0.206,-0.718,0.249,1.194,0.271,-0.084,0.256,-0.025,0.127,0.390
'0:00.033',-0.189,0.110,0.299,0.040,-0.244,0.205,-0.718,0.249,1.194,0.270,-0.082,0.259,-0.025,0.126,0.388
'0:00.034',-0.189,0.108,0.297,0.040,-0.243,0.203,-0.718,0.248,1.192,0.267,-0.083,0.257,-0.028,0.126,0.383
'0:00.035',-0.191,0.110,0.301,0.040,-0.246,0.206,-0.724,0.246,1.190,0.265,-0.086,0.254,-0.029,0.123,0.384
'0:00.036',-0.192,0.107,0.300,0.043,-0.246,0.204,-0.730,0.248,1.183,0.269,-0.085,0.255,-0.031,0.116,0.388
'0:00.037',-0.197,0.104,0.301,0.046,-0.249,0.203,-0.733,0.249,1.176,0.272,-0.084,0.255,-0.034,0.112,0.389
'0:00.038',-0.197,0.101,0.297,0.048,-0.247,0.200,-0.725,0.250,1.179,0.273,-0.082,0.259,-0.033,0.114,0.388
'0:00.039',-0.195,0.098,0.293,0.048,-0.244,0.196,-0.711,0.248,1.188,0.270,-0.082,0.258,-0.032,0.117,0.384
'0:00.040',-0.199,0.095,0.294,0.052,-0.246,0.195,-0.706,0.250,1.195,0.269,-0.082,0.255,-0.030,0.121,0.385
'0:00.041',-0.193,0.100,0.292,0.046,-0.242,0.196,-0.707,0.250,1.196,0.267,-0.083,0.255,-0.029,0.123,0.383
'0:00.042',-0.193,0.103,0.296,0.044,-0.245,0.201,-0.707,0.252,1.199,0.267,-0.084,0.254,-0.029,0.126,0.384
'0:00.043',-0.195,0.105,0.300,0.045,-0.247,0.203,-0.707,0.251,1.200,0.269,-0.086,0.251,-0.029,0.127,0.387
'0:00.044',-0.197,0.103,0.300,0.046,-0.248,0.202,-0.706,0.249,1.196,0.272,-0.086,0.249,-0.029,0.122,0.391
'0:00.045',-0.197,0.099,0.296,0.049,-0.246,0.198,-0.704,0.251,1.200,0.272,-0.084,0.253,-0.028,0.121,0.390
'0:00.046',-0.194,0.103,0.297,0.045,-0.245,0.200,-0.697,0.250,1.208,0.268,-0.088,0.251,-0.025,0.129,0.388
'0:00.047',-0.189,0.108,0.298,0.040,-0.244,0.203,-0.697,0.248,1.214,0.261,-0.089,0.249,-0.023,0.139,0.385
'0:00.048',-0.184,0.114,0.298,0.035,-0.241,0.206,-0.707,0.247,1.212,0.261,-0.091,0.247,-0.025,0.140,0.385
'0:00.049',-0.183,0.118,0.302,0.033,-0.243,0.210,-0.721,0.247,1.204,0.267,-0.092,0.247,-0.028,0.132,0.388
'0:00.050',-0.182,0.122,0.304,0.030,-0.243,0.213,-0.730,0.247,1.197,0.269,-0.090,0.250,-0.028,0.129,0.389
'0:00.051',-0.186,0.117,0.304,0.035,-0.245,0.210,-0.729,0.249,1.196,0.271,-0.088,0.252,-0.029,0.127,0.390
'0:00.052',-0.187,0.113,0.300,0.037,-0.244,0.207,-0.728,0.251,1.196,0.273,-0.087,0.256,-0.029,0.124,0.387
'0:00.053',-0.186,0.110,0.296,0.038,-0.241,0.203,-0.728,0.253,1.198,0.274,-0.085,0.259,-0.029,0.121,0.385
'0:00.054',-0.183,0.110,0.293,0.036,-0.238,0.202,-0.727,0.253,1.198,0.272,-0.084,0.257,-0.030,0.121,0.382
'0:00.055',-0.182,0.113,0.295,0.035,-0.239,0.204,-0.729,0.252,1.194,0.270,-0.088,0.254,-0.030,0.120,0.382
'0:00.056',-0.183,0.108,0.292,0.037,-0.238,0.200,-0.734,0.256,1.188,0.272,-0.086,0.256,-0.033,0.110,0.383
'0:00.057',-0.190,0.100,0.289,0.045,-0.240,0.195,-0.732,0.263,1.185,0.277,-0.086,0.255,-0.035,0.101,0.385
'0:00.058',-0.193,0.090,0.283,0.051,-0.238,0.187,-0.719,0.270,1.188,0.279,-0.086,0.254,-0.035,0.098,0.383
'0:00.059',-0.194,0.080,0.273,0.057,-0.234,0.176,-0.699,0.279,1.200,0.275,-0.089,0.249,-0.035,0.096,0.376
'0:00.060',-0.203,0.066,0.269,0.069,-0.235,0.167,-0.685,0.288,1.203,0.275,-0.097,0.241,-0.034,0.089,0.375
'0:00.061',-0.202,0.057,0.260,0.072,-0.231,0.159,-0.677,0.298,1.206,0.274,-0.107,0.233,-0.033,0.081,0.373
'0:00.062',-0.203,0.042,0.244,0.081,-0.224,0.143,-0.660,0.319,1.214,0.272,-0.122,0.218,-0.036,0.068,0.371
'0:00.063',-0.207,0.016,0.224,0.096,-0.216,0.120,-0.628,0.350,1.224,0.272,-0.139,0.200,-0.042,0.043,0.367
'0:00.064',-0.213,-0.021,0.193,0.118,-0.203,0.086,-0.591,0.394,1.240,0.273,-0.159,0.181,-0.047,0.007,0.363
'0:00.065',-0.217,-0.070,0.147,0.143,-0.182,0.038,-0.545,0.449,1.266,0.269,-0.178,0.162,-0.057,-0.034,0.352
'0:00.066',-0.212,-0.113,0.100,0.163,-0.156,-0.006,-0.490,0.506,1.294,0.261,-0.202,0.138,-0.062,-0.070,0.341
'0:00.067',-0.203,-0.148,0.056,0.175,-0.130,-0.046,-0.447,0.555,1.321,0.252,-0.221,0.121,-0.068,-0.100,0.329
'0:00.068',-0.201,-0.180,0.021,0.190,-0.111,-0.080,-0.412,0.605,1.341,0.247,-0.244,0.099,-0.077,-0.137,0.319
'0:00.069',-0.202,-0.221,-0.018,0.211,-0.092,-0.119,-0.373,0.667,1.355,0.250,-0.271,0.074,-0.086,-0.188,0.312
'0:00.070',-0.198,-0.258,-0.059,0.228,-0.070,-0.158,-0.321,0.735,1.376,0.249,-0.297,0.052,-0.093,-0.231,0.295
'0:00.071',-0.200,-0.296,-0.097,0.248,-0.052,-0.196,-0.270,0.795,1.396,0.250,-0.322,0.034,-0.099,-0.266,0.281
'0:00.072',-0.197,-0.322,-0.124,0.259,-0.036,-0.223,-0.236,0.842,1.416,0.247,-0.330,0.026,-0.101,-0.289,0.267
'0:00.073',-0.194,-0.328,-0.134,0.261,-0.030,-0.231,-0.216,0.868,1.427,0.248,-0.335,0.022,-0.102,-0.295,0.253
'0:00.074',-0.191,-0.309,-0.118,0.250,-0.036,-0.213,-0.210,0.870,1.429,0.250,-0.336,0.022,-0.098,-0.281,0.239
'0:00.075',-0.186,-0.276,-0.088,0.231,-0.050,-0.182,-0.210,0.874,1.440,0.255,-0.330,0.030,-0.099,-0.252,0.224
'0:00.076',-0.181,-0.240,-0.059,0.211,-0.061,-0.149,-0.217,0.883,1.451,0.264,-0.314,0.047,-0.101,-0.226,0.205
'0:00.077',-0.174,-0.190,-0.015,0.182,-0.080,-0.102,-0.232,0.881,1.471,0.272,-0.281,0.077,-0.104,-0.187,0.186
'0:00.078',-0.166,-0.132,0.034,0.148,-0.100,-0.049,-0.264,0.846,1.474,0.273,-0.241,0.116,-0.096,-0.132,0.178
'0:00.079',-0.151,-0.055,0.097,0.103,-0.124,0.021,-0.302,0.803,1.480,0.270,-0.198,0.155,-0.086,-0.052,0.167
'0:00.080',-0.137,0.022,0.159,0.057,-0.147,0.090,-0.349,0.768,1.496,0.265,-0.143,0.202,-0.084,0.021,0.164
'0:00.081',-0.115,0.096,0.210,0.009,-0.163,0.153,-0.391,0.752,1.517,0.258,-0.087,0.249,-0.086,0.084,0.151
'0:00.082',-0.092,0.152,0.244,-0.030,-0.169,0.199,-0.402,0.780,1.574,0.250,-0.027,0.292,-0.108,0.131,0.123
'0:00.083',-0.072,0.208,0.280,-0.069,-0.176,0.244,-0.440,0.759,1.587,0.239,0.038,0.340,-0.117,0.177,0.118
'0:00.084',-0.054,0.276,0.331,-0.111,-0.193,0.303,-0.478,0.730,1.593,0.236,0.103,0.396,-0.117,0.236,0.112
'0:00.085',-0.036,0.332,0.368,-0.148,-0.202,0.350,-0.508,0.700,1.611,0.232,0.172,0.453,-0.123,0.288,0.101
'0:00.086',-0.021,0.399,0.419,-0.190,-0.220,0.409,-0.528,0.657,1.622,0.230,0.235,0.502,-0.128,0.353,0.083
'0:00.087',0.002,0.485,0.482,-0.243,-0.240,0.484,-0.571,0.605,1.643,0.227,0.317,0.565,-0.137,0.432,0.060
'0:00.088',0.031,0.581,0.550,-0.306,-0.260,0.567,-0.665,0.522,1.651,0.218,0.413,0.639,-0.150,0.510,0.052
'0:00.089',0.049,0.694,0.645,-0.371,-0.298,0.670,-0.778,0.406,1.628,0.219,0.519,0.726,-0.158,0.603,0.050
'0:00.090',0.068,0.828,0.760,-0.448,-0.346,0.794,-0.932,0.220,1.556,0.223,0.625,0.817,-0.141,0.718,0.064
'0:00.091',0.070,0.962,0.891,-0.516,-0.410,0.927,-1.079,0.025,1.476,0.234,0.718,0.899,-0.122,0.840,0.085
'0:00.092',0.081,1.113,1.033,-0.597,-0.476,1.073,-1.226,-0.158,1.425,0.237,0.842,0.999,-0.122,0.975,0.090
'0:00.093',0.101,1.230,1.129,-0.665,-0.514,1.179,-1.343,-0.293,1.416,0.232,0.971,1.093,-0.147,1.079,0.075
'0:00.094',0.102,1.341,1.238,-0.722,-0.568,1.290,-1.407,-0.402,1.414,0.237,1.069,1.164,-0.171,1.181,0.042
'0:00.095',0.082,1.476,1.394,-0.779,-0.655,1.435,-1.468,-0.530,1.373,0.261,1.143,1.219,-0.174,1.306,0.011
'0:00.096',0.060,1.593,1.534,-0.827,-0.737,1.564,-1.538,-0.653,1.312,0.286,1.212,1.273,-0.173,1.415,0.001
'0:00.097',0.051,1.726,1.675,-0.888,-0.812,1.700,-1.615,-0.757,1.281,0.305,1.300,1.341,-0.182,1.534,-0.011
'0:00.098',0.052,1.867,1.815,-0.960,-0.881,1.841,-1.692,-0.838,1.305,0.316,1.393,1.412,-0.208,1.665,-0.045
'0:00.099',0.058,1.993,1.935,-1.026,-0.938,1.964,-1.763,-0.906,1.344,0.318,1.483,1.477,-0.241,1.784,-0.085
'0:00.100',0.068,2.086,2.018,-1.077,-0.975,2.053,-1.823,-0.962,1.377,0.317,1.567,1.532,-0.275,1.871,-0.114
'0:00.101',0.083,2.182,2.099,-1.133,-1.008,2.141,-1.882,-1.002,1.413,0.316,1.631,1.578,-0.307,1.955,-0.138
'0:00.102',0.091,2.233,2.142,-1.163,-1.025,2.188,-1.919,-1.026,1.446,0.312,1.692,1.619,-0.336,2.002,-0.147
'0:00.103',0.097,2.236,2.139,-1.167,-1.021,2.188,-1.942,-1.043,1.450,0.308,1.737,1.650,-0.356,2.007,-0.139
'0:00.104',0.086,2.163,2.077,-1.125,-0.996,2.120,-1.921,-1.030,1.440,0.314,1.739,1.645,-0.374,1.954,-0.123
'0:00.105',0.073,1.987,1.913,-1.030,-0.920,1.950,-1.829,-0.938,1.468,0.315,1.712,1.609,-0.405,1.811,-0.111
'0:00.106',0.057,1.810,1.752,-0.933,-0.848,1.781,-1.724,-0.833,1.498,0.316,1.648,1.545,-0.420,1.666,-0.086
'0:00.107',0.035,1.657,1.621,-0.846,-0.793,1.639,-1.633,-0.762,1.456,0.324,1.540,1.464,-0.378,1.541,-0.036
'0:00.108',0.005,1.521,1.516,-0.763,-0.754,1.518,-1.584,-0.740,1.311,0.334,1.392,1.371,-0.273,1.425,0.058
'0:00.109',-0.035,1.407,1.442,-0.686,-0.738,1.425,-1.581,-0.785,1.056,0.352,1.202,1.266,-0.098,1.329,0.204
'0:00.110',-0.075,1.319,1.395,-0.623,-0.735,1.357,-1.567,-0.835,0.795,0.374,0.990,1.153,0.086,1.254,0.344
'0:00.111',-0.137,1.212,1.349,-0.538,-0.742,1.280,-1.526,-0.877,0.516,0.398,0.746,1.018,0.292,1.169,0.501
'0:00.112',-0.188,1.100,1.288,-0.456,-0.738,1.194,-1.501,-0.930,0.254,0.417,0.511,0.893,0.499,1.078,0.656
'0:00.113',-0.218,1.004,1.222,-0.393,-0.720,1.113,-1.469,-0.927,0.167,0.433,0.356,0.795,0.561,0.997,0.722
'0:00.114',-0.235,0.947,1.183,-0.356,-0.709,1.065,-1.425,-0.886,0.162,0.446,0.252,0.719,0.565,0.952,0.738
'0:00.115',-0.255,0.905,1.161,-0.325,-0.708,1.034,-1.398,-0.867,0.135,0.463,0.147,0.645,0.582,0.917,0.764
'0:00.116',-0.279,0.843,1.123,-0.281,-0.701,0.983,-1.371,-0.836,0.129,0.486,0.065,0.576,0.564,0.862,0.777
'0:00.117',-0.295,0.778,1.075,-0.241,-0.685,0.926,-1.319,-0.769,0.168,0.505,0.011,0.519,0.522,0.803,0.767
'0:00.118',-0.307,0.703,1.010,-0.198,-0.659,0.857,-1.248,-0.693,0.231,0.510,-0.026,0.476,0.475,0.741,0.744
'0:00.119',-0.311,0.643,0.956,-0.166,-0.633,0.800,-1.184,-0.633,0.291,0.508,-0.049,0.445,0.441,0.697,0.722
'0:00.120',-0.330,0.579,0.909,-0.125,-0.619,0.744,-1.127,-0.587,0.331,0.513,-0.104,0.392,0.412,0.648,0.717
'0:00.121',-0.341,0.507,0.848,-0.084,-0.594,0.678,-1.078,-0.535,0.372,0.517,-0.171,0.328,0.374,0.586,0.707
'0:00.122',-0.346,0.439,0.784,-0.046,-0.565,0.612,-1.032,-0.480,0.420,0.516,-0.212,0.277,0.333,0.524,0.697
'0:00.123',-0.358,0.374,0.734,-0.007,-0.546,0.554,-0.994,-0.429,0.464,0.518,-0.240,0.233,0.297,0.465,0.692
'0:00.124',-0.365,0.304,0.670,0.030,-0.517,0.487,-0.973,-0.381,0.504,0.512,-0.258,0.205,0.268,0.404,0.693
'0:00.125',-0.363,0.226,0.589,0.069,-0.476,0.407,-0.948,-0.334,0.545,0.495,-0.267,0.188,0.241,0.335,0.697
'0:00.126',-0.358,0.172,0.530,0.093,-0.445,0.351,-0.920,-0.294,0.593,0.479,-0.269,0.171,0.218,0.285,0.689
'0:00.127',-0.351,0.141,0.493,0.105,-0.422,0.318,-0.909,-0.265,0.635,0.462,-0.266,0.166,0.202,0.259,0.679
'0:00.128',-0.339,0.126,0.465,0.106,-0.402,0.295,-0.914,-0.234,0.671,0.442,-0.257,0.168,0.184,0.234,0.668
'0:00.129',-0.322,0.124,0.447,0.099,-0.384,0.285,-0.926,-0.192,0.713,0.424,-0.237,0.177,0.162,0.219,0.655
'0:00.130',-0.308,0.126,0.434,0.091,-0.371,0.281,-0.938,-0.166,0.741,0.412,-0.223,0.183,0.146,0.209,0.640
'0:00.131',-0.304,0.117,0.422,0.093,-0.363,0.270,-0.932,-0.138,0.769,0.402,-0.209,0.191,0.133,0.194,0.624
'0:00.132',-0.294,0.113,0.408,0.090,-0.351,0.261,-0.928,-0.105,0.810,0.387,-0.189,0.207,0.117,0.188,0.602
'0:00.133',-0.276,0.111,0.387,0.083,-0.331,0.248,-0.921,-0.070,0.854,0.366,-0.164,0.224,0.100,0.175,0.575
'0:00.134',-0.254,0.123,0.377,0.066,-0.316,0.250,-0.904,-0.033,0.902,0.344,-0.139,0.240,0.082,0.175,0.545
'0:00.135',-0.242,0.142,0.385,0.051,-0.314,0.264,-0.893,-0.005,0.941,0.335,-0.120,0.251,0.066,0.184,0.518
'0:00.136',-0.235,0.151,0.387,0.042,-0.311,0.270,-0.877,0.034,0.979,0.329,-0.096,0.264,0.046,0.182,0.487
'0:00.137',-0.228,0.168,0.396,0.030,-0.312,0.282,-0.856,0.074,1.016,0.329,-0.075,0.279,0.029,0.188,0.461
'0:00.138',-0.222,0.177,0.399,0.022,-0.310,0.288,-0.823,0.112,1.057,0.328,-0.058,0.291,0.018,0.198,0.435
'0:00.139',-0.216,0.171,0.388,0.023,-0.302,0.280,-0.787,0.143,1.095,0.316,-0.048,0.297,0.011,0.200,0.415
'0:00.140',-0.214,0.168,0.382,0.024,-0.298,0.275,-0.759,0.171,1.126,0.312,-0.043,0.298,0.002,0.203,0.403
'0:00.141',-0.203,0.177,0.381,0.013,-0.292,0.280,-0.741,0.198,1.154,0.308,-0.035,0.301,-0.006,0.212,0.387
'0:00.142',-0.200,0.179,0.380,0.011,-0.290,0.280,-0.731,0.215,1.171,0.305,-0.032,0.303,-0.011,0.211,0.381
'0:00.143',-0.199,0.183,0.382,0.007,-0.290,0.282,-0.719,0.234,1.188,0.305,-0.030,0.303,-0.017,0.213,0.375
'0:00.144',-0.200,0.185,0.385,0.007,-0.293,0.285,-0.706,0.255,1.206,0.306,-0.025,0.306,-0.022,0.216,0.367
'0:00.145',-0.199,0.182,0.382,0.009,-0.290,0.282,-0.695,0.268,1.220,0.307,-0.022,0.307,-0.025,0.216,0.358
'0:00.146',-0.192,0.188,0.380,0.002,-0.286,0.284,-0.681,0.281,1.240,0.302,-0.022,0.304,-0.029,0.225,0.350
'0:00.147',-0.183,0.193,0.376,-0.005,-0.280,0.284,-0.666,0.295,1.260,0.295,-0.019,0.306,-0.032,0.232,0.342
'0:00.148',-0.179,0.194,0.374,-0.007,-0.277,0.284,-0.668,0.307,1.268,0.291,-0.020,0.304,-0.036,0.227,0.339
'0:00.149',-0.177,0.196,0.373,-0.009,-0.276,0.284,-0.681,0.317,1.268,0.292,-0.021,0.304,-0.043,0.220,0.340
'0:00.150',-0.172,0.195,0.367,-0.011,-0.270,0.281,-0.682,0.323,1.265,0.292,-0.021,0.304,-0.045,0.212,0.337
'0:00.151',-0.176,0.185,0.361,-0.004,-0.269,0.274,-0.680,0.327,1.264,0.293,-0.020,0.303,-0.048,0.204,0.337
'0:00.152',-0.175,0.181,0.356,-0.003,-0.266,0.269,-0.678,0.330,1.268,0.292,-0.018,0.304,-0.050,0.202,0.333
'0:00.153',-0.174,0.176,0.351,-0.002,-0.263,0.264,-0.675,0.333,1.272,0.292,-0.015,0.306,-0.052,0.199,0.330
'0:00.154',-0.170,0.176,0.345,-0.003,-0.258,0.261,-0.675,0.335,1.272,0.289,-0.018,0.304,-0.053,0.197,0.327
'0:00.155',-0.169,0.177,0.346,-0.004,-0.258,0.262,-0.677,0.337,1.270,0.287,-0.023,0.299,-0.055,0.193,0.326
'0:00.156',-0.173,0.172,0.346,0.001,-0.260,0.260,-0.684,0.341,1.267,0.288,-0.020,0.301,-0.059,0.185,0.327
'0:00.157',-0.178,0.167,0.346,0.006,-0.263,0.257,-0.687,0.344,1.262,0.291,-0.019,0.300,-0.061,0.176,0.329
'0:00.158',-0.179,0.161,0.341,0.009,-0.260,0.251,-0.680,0.346,1.268,0.290,-0.016,0.303,-0.061,0.173,0.326
'0:00.159',-0.176,0.158,0.334,0.009,-0.256,0.246,-0.666,0.351,1.282,0.286,-0.015,0.305,-0.059,0.178,0.323
'0:00.160',-0.182,0.149,0.332,0.017,-0.258,0.241,-0.658,0.355,1.292,0.286,-0.015,0.302,-0.061,0.177,0.323
'0:00.161',-0.177,0.154,0.332,0.011,-0.255,0.243,-0.658,0.357,1.296,0.284,-0.016,0.303,-0.061,0.180,0.321
'0:00.162',-0.174,0.158,0.333,0.008,-0.254,0.246,-0.656,0.360,1.300,0.284,-0.018,0.300,-0.065,0.182,0.320
'0:00.163',-0.173,0.161,0.335,0.006,-0.255,0.248,-0.657,0.362,1.304,0.284,-0.019,0.299,-0.066,0.182,0.321
'0:00.164',-0.176,0.160,0.336,0.009,-0.257,0.248,-0.655,0.366,1.309,0.286,-0.017,0.301,-0.067,0.180,0.324
'0:00.165',-0.178,0.152,0.332,0.013,-0.256,0.242,-0.649,0.370,1.315,0.286,-0.013,0.303,-0.069,0.177,0.320
'0:00.166',-0.173,0.155,0.330,0.009,-0.252,0.243,-0.644,0.370,1.327,0.283,-0.013,0.301,-0.069,0.184,0.317
'0:00.167',-0.170,0.160,0.330,0.005,-0.249,0.245,-0.639,0.371,1.337,0.279,-0.013,0.300,-0.068,0.192,0.312
'0:00.168',-0.166,0.166,0.332,0.000,-0.249,0.249,-0.644,0.373,1.337,0.279,-0.013,0.297,-0.071,0.191,0.312
'0:00.169',-0.166,0.170,0.337,-0.002,-0.252,0.254,-0.656,0.376,1.333,0.284,-0.012,0.297,-0.076,0.185,0.315
'0:00.170',-0.163,0.175,0.339,-0.006,-0.251,0.258,-0.659,0.378,1.329,0.286,-0.007,0.300,-0.077,0.183,0.312
'0:00.171',-0.165,0.172,0.337,-0.004,-0.251,0.255,-0.656,0.381,1.329,0.286,-0.006,0.301,-0.079,0.179,0.312
'0:00.172',-0.165,0.167,0.333,-0.001,-0.249,0.250,-0.657,0.383,1.329,0.286,-0.005,0.304,-0.081,0.176,0.309
'0:00.173',-0.163,0.167,0.330,-0.002,-0.246,0.248,-0.656,0.387,1.333,0.286,-0.001,0.308,-0.082,0.176,0.305
'0:00.174',-0.159,0.171,0.330,-0.006,-0.244,0.250,-0.653,0.387,1.335,0.283,0.001,0.308,-0.082,0.176,0.302
'0:00.175',-0.157,0.174,0.332,-0.009,-0.244,0.253,-0.656,0.388,1.335,0.281,-0.001,0.306,-0.083,0.175,0.301
'0:00.176',-0.161,0.171,0.331,-0.005,-0.245,0.251,-0.663,0.394,1.331,0.283,0.002,0.309,-0.086,0.170,0.303
'0:00.177',-0.164,0.167,0.331,-0.002,-0.247,0.248,-0.664,0.393,1.323,0.288,0.001,0.309,-0.087,0.163,0.306
'0:00.178',-0.163,0.164,0.328,-0.001,-0.245,0.246,-0.656,0.393,1.326,0.288,0.003,0.314,-0.086,0.166,0.304
'0:00.179',-0.162,0.161,0.323,0.000,-0.242,0.242,-0.642,0.395,1.337,0.282,0.004,0.316,-0.085,0.173,0.299
'0:00.180',-0.167,0.155,0.322,0.005,-0.244,0.239,-0.638,0.396,1.347,0.282,0.005,0.316,-0.084,0.172,0.298
'0:00.181',-0.163,0.160,0.323,0.002,-0.243,0.241,-0.641,0.395,1.352,0.280,0.006,0.316,-0.083,0.174,0.296
'0:00.182',-0.162,0.163,0.325,-0.001,-0.243,0.244,-0.639,0.397,1.353,0.280,0.007,0.314,-0.083,0.176,0.298
'0:00.183',-0.163,0.166,0.330,-0.002,-0.246,0.248,-0.641,0.398,1.355,0.281,0.007,0.314,-0.083,0.178,0.300
'0:00.184',-0.164,0.167,0.331,-0.002,-0.247,0.249,-0.644,0.400,1.359,0.284,0.007,0.315,-0.083,0.179,0.302
'0:00.185',-0.166,0.163,0.329,0.001,-0.247,0.246,-0.643,0.403,1.365,0.282,0.011,0.318,-0.083,0.180,0.299
'0:00.186',-0.162,0.168,0.330,-0.004,-0.245,0.249,-0.636,0.402,1.371,0.278,0.009,0.317,-0.082,0.189,0.297
'0:00.187',-0.155,0.172,0.327,-0.009,-0.241,0.249,-0.632,0.403,1.381,0.274,0.008,0.315,-0.083,0.196,0.294
'0:00.188',-0.154,0.176,0.331,-0.011,-0.242,0.254,-0.641,0.404,1.381,0.274,0.005,0.315,-0.085,0.194,0.295
'0:00.189',-0.154,0.181,0.336,-0.013,-0.245,0.259,-0.653,0.406,1.373,0.279,0.005,0.315,-0.087,0.189,0.297
'0:00.190',-0.149,0.188,0.337,-0.019,-0.243,0.263,-0.659,0.407,1.371,0.281,0.009,0.317,-0.089,0.188,0.295
'0:00.191',-0.154,0.182,0.337,-0.015,-0.245,0.260,-0.655,0.410,1.371,0.281,0.013,0.319,-0.091,0.186,0.294
'0:00.192',-0.153,0.178,0.332,-0.013,-0.242,0.256,-0.652,0.411,1.372,0.282,0.016,0.322,-0.091,0.184,0.292
'0:00.193',-0.151,0.178,0.330,-0.013,-0.240,0.255,-0.649,0.414,1.375,0.283,0.019,0.328,-0.091,0.185,0.290
'0:00.194',-0.147,0.183,0.331,-0.018,-0.238,0.257,-0.647,0.415,1.375,0.280,0.021,0.328,-0.092,0.187,0.286
'0:00.195',-0.145,0.189,0.334,-0.022,-0.239,0.262,-0.652,0.415,1.373,0.279,0.018,0.324,-0.094,0.186,0.286
'0:00.196',-0.151,0.183,0.335,-0.017,-0.243,0.260,-0.660,0.418,1.367,0.281,0.021,0.327,-0.097,0.176,0.287
'0:00.197',-0.154,0.179,0.334,-0.013,-0.244,0.257,-0.662,0.420,1.361,0.284,0.021,0.329,-0.100,0.171,0.288
'0:00.198',-0.155,0.174,0.330,-0.009,-0.242,0.252,-0.656,0.422,1.364,0.284,0.024,0.330,-0.101,0.175,0.286
'0:00.199',-0.155,0.171,0.326,-0.008,-0.240,0.248,-0.646,0.423,1.373,0.279,0.025,0.330,-0.100,0.182,0.281
'0:00.200',-0.159,0.166,0.325,-0.004,-0.241,0.245,-0.641,0.425,1.381,0.278,0.025,0.329,-0.099,0.185,0.281
'0:00.201',-0.158,0.170,0.328,-0.006,-0.242,0.249,-0.645,0.425,1.383,0.277,0.024,0.328,-0.098,0.183,0.279
'0:00.202',-0.157,0.175,0.332,-0.009,-0.244,0.254,-0.647,0.426,1.387,0.277,0.022,0.326,-0.098,0.186,0.280
'0:00.203',-0.155,0.179,0.335,-0.012,-0.245,0.258,-0.647,0.427,1.389,0.277,0.022,0.325,-0.099,0.191,0.280
'0:00.204',-0.160,0.178,0.338,-0.009,-0.248,0.258,-0.643,0.428,1.391,0.280,0.023,0.325,-0.099,0.191,0.281
'0:00.205',-0.163,0.174,0.337,-0.006,-0.249,0.256,-0.638,0.430,1.395,0.280,0.027,0.326,-0.100,0.192,0.280
'0:00.206',-0.155,0.181,0.337,-0.013,-0.246,0.260,-0.630,0.432,1.405,0.275,0.026,0.326,-0.098,0.205,0.277
'0:00.207',-0.147,0.188,0.336,-0.021,-0.241,0.262,-0.628,0.433,1.415,0.273,0.029,0.326,-0.095,0.214,0.273
'0:00.208',-0.147,0.192,0.340,-0.022,-0.243,0.266,-0.634,0.433,1.413,0.274,0.025,0.323,-0.097,0.213,0.273
'0:00.209',-0.148,0.196,0.344,-0.024,-0.246,0.270,-0.644,0.435,1.406,0.279,0.026,0.324,-0.101,0.209,0.276
'0:00.210',-0.142,0.202,0.344,-0.030,-0.243,0.274,-0.649,0.435,1.401,0.280,0.029,0.326,-0.104,0.207,0.273
'0:00.211',-0.145,0.199,0.344,-0.028,-0.244,0.272,-0.643,0.439,1.402,0.281,0.029,0.329,-0.106,0.206,0.275
'0:00.212',-0.144,0.195,0.340,-0.025,-0.242,0.268,-0.645,0.442,1.403,0.281,0.032,0.333,-0.108,0.204,0.272
'0:00.213',-0.144,0.192,0.337,-0.024,-0.240,0.265,-0.643,0.444,1.405,0.278,0.035,0.335,-0.109,0.200,0.268
'0:00.214',-0.141,0.195,0.336,-0.028,-0.238,0.266,-0.642,0.444,1.405,0.275,0.036,0.335,-0.110,0.202,0.263
'0:00.215',-0.143,0.199,0.342,-0.029,-0.242,0.271,-0.646,0.446,1.407,0.275,0.035,0.334,-0.113,0.202,0.262
'0:00.216',-0.148,0.195,0.343,-0.024,-0.245,0.269,-0.655,0.450,1.404,0.277,0.038,0.336,-0.118,0.195,0.263
'0:00.217',-0.151,0.192,0.344,-0.021,-0.247,0.268,-0.656,0.452,1.398,0.281,0.041,0.335,-0.121,0.188,0.264
'0:00.218',-0.154,0.188,0.342,-0.018,-0.248,0.265,-0.646,0.454,1.401,0.281,0.045,0.338,-0.120,0.192,0.262
'0:00.219',-0.154,0.184,0.339,-0.015,-0.246,0.262,-0.634,0.456,1.413,0.278,0.047,0.339,-0.119,0.197,0.257
'0:00.220',-0.161,0.177,0.338,-0.009,-0.249,0.258,-0.627,0.457,1.421,0.277,0.046,0.337,-0.119,0.199,0.255
'0:00.221',-0.153,0.184,0.338,-0.015,-0.245,0.261,-0.629,0.459,1.427,0.274,0.046,0.338,-0.118,0.206,0.254
'0:00.222',-0.149,0.190,0.339,-0.020,-0.244,0.265,-0.625,0.463,1.429,0.276,0.047,0.339,-0.119,0.209,0.255
'0:00.223',-0.150,0.193,0.344,-0.021,-0.247,0.269,-0.624,0.464,1.433,0.277,0.046,0.339,-0.120,0.210,0.256
'0:00.224',-0.153,0.194,0.347,-0.021,-0.250,0.271,-0.626,0.467,1.437,0.280,0.048,0.337,-0.121,0.212,0.256
'0:00.225',-0.154,0.190,0.344,-0.018,-0.249,0.267,-0.620,0.470,1.443,0.281,0.053,0.342,-0.122,0.212,0.254
'0:00.226',-0.148,0.194,0.342,-0.023,-0.245,0.268,-0.611,0.472,1.454,0.278,0.054,0.342,-0.121,0.219,0.250
'0:00.227',-0.141,0.199,0.341,-0.029,-0.241,0.270,-0.611,0.472,1.462,0.273,0.054,0.341,-0.121,0.225,0.246
'0:00.228',-0.140,0.205,0.345,-0.033,-0.242,0.276,-0.616,0.474,1.462,0.272,0.053,0.338,-0.124,0.226,0.247
'0:00.229',-0.139,0.211,0.351,-0.036,-0.245,0.281,-0.628,0.478,1.456,0.278,0.054,0.338,-0.128,0.222,0.251
'0:00.230',-0.133,0.221,0.353,-0.044,-0.243,0.287,-0.634,0.480,1.453,0.278,0.058,0.343,-0.128,0.222,0.249
'0:00.231',-0.138,0.217,0.355,-0.040,-0.246,0.286,-0.627,0.483,1.456,0.280,0.060,0.345,-0.129,0.221,0.249
'0:00.232',-0.141,0.213,0.354,-0.036,-0.248,0.284,-0.623,0.486,1.458,0.279,0.064,0.349,-0.130,0.221,0.247
'0:00.233',-0.140,0.212,0.351,-0.036,-0.245,0.282,-0.623,0.488,1.460,0.278,0.067,0.353,-0.132,0.221,0.243
'0:00.234',-0.134,0.217,0.350,-0.042,-0.242,0.284,-0.622,0.491,1.463,0.277,0.068,0.354,-0.133,0.222,0.237
'0:00.235',-0.131,0.225,0.354,-0.048,-0.242,0.290,-0.625,0.491,1.462,0.276,0.068,0.353,-0.135,0.223,0.235
'0:00.236',-0.133,0.222,0.355,-0.044,-0.244,0.289,-0.631,0.494,1.458,0.278,0.072,0.355,-0.139,0.217,0.234
'0:00.237',-0.138,0.220,0.358,-0.041,-0.248,0.289,-0.630,0.498,1.456,0.280,0.074,0.357,-0.141,0.213,0.237
'0:00.238',-0.139,0.215,0.354,-0.038,-0.247,0.285,-0.624,0.500,1.462,0.281,0.077,0.361,-0.140,0.214,0.235
'0:00.239',-0.139,0.212,0.352,-0.037,-0.245,0.282,-0.613,0.504,1.472,0.276,0.080,0.362,-0.139,0.220,0.231
'0:00.240',-0.141,0.210,0.351,-0.035,-0.246,0.281,-0.608,0.507,1.480,0.275,0.080,0.360,-0.140,0.225,0.231
'0:00.241',-0.133,0.218,0.350,-0.043,-0.241,0.284,-0.613,0.508,1.485,0.271,0.079,0.360,-0.141,0.230,0.227
'0:00.242',-0.130,0.225,0.355,-0.048,-0.242,0.290,-0.613,0.509,1.490,0.269,0.079,0.358,-0.142,0.232,0.226
'0:00.243',-0.131,0.227,0.357,-0.048,-0.244,0.292,-0.612,0.510,1.493,0.270,0.080,0.358,-0.142,0.233,0.227
'0:00.244',-0.136,0.224,0.360,-0.044,-0.248,0.292,-0.611,0.514,1.496,0.271,0.082,0.360,-0.144,0.234,0.227
'0:00.245',-0.138,0.221,0.358,-0.042,-0.248,0.289,-0.607,0.517,1.500,0.272,0.086,0.363,-0.145,0.234,0.224
'0:00.246',-0.134,0.227,0.360,-0.046,-0.247,0.293,-0.600,0.517,1.510,0.270,0.085,0.362,-0.144,0.241,0.221
'0:00.247',-0.128,0.234,0.361,-0.053,-0.245,0.298,-0.595,0.520,1.520,0.265,0.086,0.362,-0.144,0.252,0.214
'0:00.248',-0.123,0.239,0.362,-0.059,-0.242,0.300,-0.599,0.523,1.522,0.265,0.087,0.361,-0.147,0.252,0.212
'0:00.249',-0.125,0.243,0.368,-0.059,-0.246,0.306,-0.608,0.526,1.517,0.270,0.088,0.361,-0.153,0.245,0.213
'0:00.250',-0.117,0.254,0.371,-0.069,-0.244,0.312,-0.610,0.531,1.518,0.273,0.095,0.365,-0.155,0.246,0.209
'0:00.251',-0.117,0.253,0.370,-0.069,-0.243,0.312,-0.607,0.536,1.522,0.275,0.101,0.370,-0.157,0.244,0.209
'0:00.252',-0.119,0.250,0.369,-0.066,-0.244,0.310,-0.603,0.538,1.524,0.275,0.103,0.373,-0.158,0.242,0.206
'0:00.253',-0.113,0.252,0.364,-0.070,-0.238,0.308,-0.602,0.545,1.529,0.273,0.109,0.378,-0.159,0.247,0.202
'0:00.254',-0.107,0.256,0.363,-0.074,-0.235,0.309,-0.603,0.549,1.534,0.270,0.112,0.380,-0.161,0.249,0.196
'0:00.255',-0.108,0.261,0.369,-0.076,-0.239,0.316,-0.605,0.551,1.534,0.270,0.112,0.379,-0.163,0.247,0.196
'0:00.256',-0.113,0.258,0.371,-0.073,-0.242,0.315,-0.614,0.556,1.532,0.274,0.117,0.384,-0.166,0.239,0.196
'0:00.257',-0.118,0.257,0.375,-0.069,-0.246,0.316,-0.614,0.561,1.529,0.278,0.120,0.385,-0.170,0.234,0.196
'0:00.258',-0.116,0.257,0.373,-0.071,-0.244,0.316,-0.606,0.566,1.535,0.277,0.126,0.391,-0.171,0.239,0.194
'0:00.259',-0.113,0.257,0.369,-0.072,-0.240,0.313,-0.595,0.569,1.550,0.272,0.130,0.394,-0.170,0.244,0.188
'0:00.260',-0.117,0.252,0.368,-0.068,-0.242,0.310,-0.588,0.573,1.558,0.270,0.130,0.392,-0.172,0.250,0.185
'0:00.261',-0.114,0.258,0.371,-0.072,-0.243,0.315,-0.590,0.575,1.562,0.268,0.132,0.394,-0.172,0.257,0.181
'0:00.262',-0.114,0.263,0.377,-0.075,-0.245,0.320,-0.590,0.577,1.567,0.267,0.132,0.395,-0.172,0.259,0.180
'0:00.263',-0.114,0.268,0.381,-0.077,-0.247,0.325,-0.591,0.582,1.571,0.266,0.133,0.393,-0.175,0.264,0.181
'0:00.264',-0.115,0.268,0.382,-0.076,-0.248,0.325,-0.590,0.587,1.579,0.268,0.138,0.393,-0.179,0.265,0.180
'0:00.265',-0.113,0.268,0.381,-0.078,-0.246,0.324,-0.583,0.591,1.586,0.269,0.143,0.399,-0.180,0.270,0.176
'0:00.266',-0.107,0.275,0.383,-0.084,-0.245,0.329,-0.575,0.595,1.598,0.267,0.145,0.399,-0.180,0.279,0.173
'0:00.267',-0.102,0.281,0.383,-0.090,-0.242,0.333,-0.571,0.598,1.610,0.263,0.147,0.400,-0.179,0.286,0.168
'0:00.268',-0.101,0.290,0.390,-0.095,-0.245,0.341,-0.578,0.602,1.613,0.264,0.149,0.399,-0.184,0.289,0.166
'0:00.269',-0.099,0.297,0.397,-0.100,-0.248,0.347,-0.588,0.608,1.612,0.267,0.154,0.401,-0.191,0.287,0.168
'0:00.270',-0.091,0.307,0.399,-0.108,-0.245,0.353,-0.592,0.613,1.613,0.269,0.162,0.405,-0.193,0.287,0.164
'0:00.271',-0.094,0.306,0.401,-0.106,-0.247,0.353,-0.588,0.618,1.617,0.272,0.165,0.407,-0.197,0.285,0.162
'0:00.272',-0.096,0.304,0.400,-0.104,-0.248,0.352,-0.581,0.622,1.622,0.272,0.171,0.410,-0.201,0.283,0.158
'0:00.273',-0.094,0.305,0.400,-0.106,-0.246,0.352,-0.581,0.629,1.625,0.273,0.178,0.417,-0.202,0.285,0.152
'0:00.274',-0.086,0.314,0.400,-0.114,-0.243,0.357,-0.583,0.633,1.631,0.268,0.181,0.421,-0.203,0.290,0.146
'0:00.275',-0.083,0.322,0.405,-0.119,-0.244,0.364,-0.587,0.637,1.635,0.266,0.184,0.420,-0.207,0.293,0.144
'0:00.276',-0.086,0.321,0.407,-0.117,-0.247,0.364,-0.594,0.641,1.633,0.268,0.190,0.423,-0.212,0.289,0.143
'0:00.277',-0.092,0.320,0.411,-0.114,-0.252,0.365,-0.594,0.647,1.632,0.270,0.193,0.426,-0.216,0.284,0.142
'0:00.278',-0.091,0.318,0.410,-0.114,-0.251,0.364,-0.585,0.653,1.640,0.272,0.200,0.433,-0.217,0.289,0.138
'0:00.279',-0.087,0.319,0.406,-0.117,-0.246,0.363,-0.574,0.657,1.655,0.267,0.205,0.436,-0.218,0.299,0.131
'0:00.280',-0.092,0.317,0.409,-0.112,-0.251,0.363,-0.569,0.660,1.667,0.264,0.207,0.436,-0.221,0.304,0.128
'0:00.281',-0.089,0.324,0.412,-0.117,-0.251,0.368,-0.571,0.662,1.674,0.261,0.210,0.438,-0.223,0.311,0.122
'0:00.282',-0.086,0.332,0.418,-0.122,-0.252,0.375,-0.569,0.667,1.682,0.261,0.214,0.439,-0.225,0.317,0.121
'0:00.283',-0.086,0.337,0.422,-0.126,-0.254,0.380,-0.568,0.674,1.690,0.261,0.215,0.441,-0.228,0.323,0.120
'0:00.284',-0.088,0.336,0.425,-0.124,-0.257,0.381,-0.567,0.678,1.695,0.261,0.217,0.443,-0.230,0.324,0.120
'0:00.285',-0.091,0.335,0.425,-0.122,-0.258,0.380,-0.564,0.682,1.704,0.262,0.226,0.448,-0.231,0.329,0.116
'0:00.286',-0.084,0.343,0.427,-0.130,-0.256,0.385,-0.554,0.686,1.718,0.258,0.229,0.451,-0.231,0.338,0.111
'0:00.287',-0.074,0.350,0.425,-0.138,-0.250,0.388,-0.548,0.690,1.732,0.253,0.234,0.455,-0.231,0.344,0.105
'0:00.288',-0.073,0.356,0.430,-0.141,-0.252,0.394,-0.558,0.695,1.738,0.253,0.236,0.455,-0.234,0.346,0.102
'0:00.289',-0.073,0.363,0.437,-0.145,-0.255,0.401,-0.569,0.699,1.739,0.257,0.241,0.457,-0.240,0.345,0.103
'0:00.290',-0.068,0.373,0.442,-0.153,-0.255,0.407,-0.573,0.704,1.740,0.259,0.247,0.463,-0.244,0.349,0.100
'0:00.291',-0.071,0.371,0.444,-0.150,-0.258,0.408,-0.571,0.709,1.742,0.259,0.254,0.467,-0.246,0.347,0.097
'0:00.292',-0.070,0.371,0.442,-0.151,-0.256,0.406,-0.569,0.715,1.748,0.259,0.261,0.472,-0.248,0.348,0.092
'0:00.293',-0.065,0.374,0.439,-0.155,-0.252,0.407,-0.569,0.721,1.757,0.259,0.268,0.479,-0.251,0.351,0.085
'0:00.294',-0.059,0.384,0.442,-0.163,-0.250,0.413,-0.570,0.725,1.764,0.256,0.274,0.483,-0.254,0.356,0.079
'0:00.295',-0.059,0.390,0.448,-0.166,-0.254,0.419,-0.571,0.730,1.771,0.257,0.277,0.484,-0.257,0.357,0.077
'0:00.296',-0.060,0.390,0.451,-0.165,-0.256,0.420,-0.577,0.737,1.770,0.262,0.285,0.491,-0.263,0.354,0.074
'0:00.297',-0.062,0.393,0.456,-0.165,-0.259,0.424,-0.583,0.742,1.769,0.266,0.291,0.494,-0.269,0.354,0.073
'0:00.298',-0.064,0.392,0.456,-0.165,-0.260,0.424,-0.574,0.746,1.778,0.267,0.297,0.499,-0.271,0.358,0.069
'0:00.299',-0.062,0.393,0.455,-0.166,-0.259,0.424,-0.558,0.749,1.793,0.261,0.302,0.502,-0.271,0.365,0.062
'0:00.300',-0.066,0.392,0.458,-0.163,-0.262,0.425,-0.552,0.752,1.806,0.261,0.305,0.505,-0.272,0.369,0.060
'0:00.301',-0.062,0.401,0.463,-0.170,-0.262,0.432,-0.555,0.755,1.812,0.258,0.312,0.508,-0.274,0.378,0.056
'0:00.302',-0.056,0.410,0.467,-0.177,-0.262,0.439,-0.556,0.758,1.818,0.255,0.316,0.509,-0.277,0.387,0.055
'0:00.303',-0.054,0.418,0.472,-0.182,-0.264,0.446,-0.557,0.759,1.823,0.254,0.318,0.511,-0.280,0.395,0.054
'0:00.304',-0.058,0.420,0.477,-0.181,-0.268,0.449,-0.559,0.763,1.829,0.257,0.324,0.513,-0.282,0.396,0.056
'0:00.305',-0.058,0.420,0.477,-0.182,-0.268,0.449,-0.555,0.768,1.837,0.256,0.331,0.520,-0.282,0.398,0.053
'0:00.306',-0.051,0.430,0.480,-0.190,-0.266,0.456,-0.548,0.770,1.849,0.251,0.335,0.525,-0.281,0.412,0.048
'0:00.307',-0.042,0.438,0.480,-0.199,-0.261,0.460,-0.546,0.772,1.861,0.247,0.341,0.530,-0.280,0.422,0.043
'0:00.308',-0.037,0.448,0.485,-0.205,-0.262,0.467,-0.556,0.774,1.863,0.247,0.346,0.533,-0.282,0.423,0.040
'0:00.309',-0.037,0.456,0.493,-0.210,-0.265,0.474,-0.569,0.777,1.861,0.252,0.353,0.535,-0.287,0.422,0.041
'0:00.310',-0.030,0.463,0.493,-0.216,-0.262,0.478,-0.573,0.780,1.857,0.251,0.358,0.541,-0.289,0.422,0.037
'0:00.311',-0.034,0.461,0.495,-0.214,-0.264,0.478,-0.573,0.785,1.860,0.252,0.363,0.545,-0.293,0.419,0.034
'0:00.312',-0.035,0.460,0.494,-0.213,-0.265,0.477,-0.573,0.787,1.863,0.251,0.369,0.548,-0.296,0.421,0.029
'0:00.313',-0.029,0.462,0.491,-0.217,-0.260,0.476,-0.575,0.790,1.865,0.249,0.376,0.555,-0.299,0.424,0.026
'0:00.314',-0.021,0.470,0.491,-0.225,-0.256,0.481,-0.579,0.789,1.870,0.247,0.382,0.558,-0.301,0.429,0.021
'0:00.315',-0.019,0.477,0.496,-0.229,-0.258,0.487,-0.583,0.789,1.871,0.245,0.385,0.558,-0.303,0.431,0.018
'0:00.316',-0.023,0.476,0.499,-0.227,-0.262,0.488,-0.590,0.793,1.867,0.248,0.392,0.564,-0.308,0.427,0.019
'0:00.317',-0.027,0.477,0.503,-0.225,-0.266,0.490,-0.595,0.795,1.865,0.249,0.394,0.566,-0.311,0.424,0.020
'0:00.318',-0.026,0.476,0.503,-0.225,-0.265,0.489,-0.587,0.796,1.869,0.250,0.403,0.572,-0.312,0.427,0.017
'0:00.319',-0.024,0.477,0.501,-0.227,-0.263,0.489,-0.573,0.798,1.884,0.248,0.408,0.577,-0.311,0.438,0.011
'0:00.320',-0.029,0.473,0.502,-0.223,-0.265,0.488,-0.571,0.798,1.893,0.247,0.408,0.574,-0.314,0.440,0.009
'0:00.321',-0.025,0.480,0.504,-0.228,-0.265,0.492,-0.576,0.796,1.893,0.244,0.410,0.575,-0.314,0.443,0.007
'0:00.322',-0.021,0.487,0.509,-0.233,-0.265,0.498,-0.576,0.798,1.898,0.243,0.413,0.575,-0.316,0.448,0.007
'0:00.323',-0.018,0.494,0.513,-0.237,-0.266,0.503,-0.576,0.800,1.902,0.244,0.416,0.574,-0.318,0.454,0.007
'0:00.324',-0.022,0.496,0.518,-0.236,-0.270,0.507,-0.575,0.802,1.903,0.248,0.418,0.577,-0.320,0.457,0.009
'0:00.325',-0.024,0.494,0.518,-0.235,-0.272,0.507,-0.571,0.803,1.909,0.249,0.424,0.581,-0.320,0.458,0.006
'0:00.326',-0.016,0.502,0.518,-0.242,-0.267,0.510,-0.566,0.802,1.919,0.245,0.425,0.584,-0.317,0.471,0.004
'0:00.327',-0.013,0.506,0.519,-0.246,-0.266,0.513,-0.564,0.801,1.927,0.240,0.425,0.586,-0.316,0.478,0.000
'0:00.328',-0.012,0.511,0.524,-0.249,-0.268,0.518,-0.574,0.802,1.923,0.240,0.425,0.585,-0.318,0.476,0.001
'0:00.329',-0.011,0.519,0.529,-0.254,-0.271,0.524,-0.588,0.801,1.915,0.245,0.427,0.587,-0.319,0.477,0.005
'0:00.330',-0.006,0.526,0.532,-0.260,-0.269,0.529,-0.595,0.801,1.911,0.247,0.432,0.592,-0.321,0.479,0.005
'0:00.331',-0.008,0.524,0.532,-0.258,-0.270,0.528,-0.597,0.802,1.911,0.248,0.437,0.594,-0.322,0.478,0.005
'0:00.332',-0.008,0.521,0.529,-0.257,-0.269,0.526,-0.598,0.800,1.909,0.245,0.442,0.597,-0.324,0.477,0.002
'0:00.333',-0.006,0.520,0.526,-0.257,-0.267,0.523,-0.598,0.800,1.909,0.245,0.445,0.601,-0.324,0.475,-0.001
'0:00.334',-0.004,0.524,0.527,-0.260,-0.266,0.526,-0.598,0.798,1.909,0.242,0.447,0.604,-0.322,0.478,-0.004
'0:00.335',-0.002,0.530,0.532,-0.264,-0.267,0.531,-0.604,0.797,1.906,0.240,0.447,0.602,-0.323,0.480,-0.004
'0:00.336',-0.006,0.528,0.535,-0.261,-0.271,0.531,-0.616,0.797,1.897,0.244,0.449,0.605,-0.325,0.472,-0.003
'0:00.337',-0.013,0.525,0.539,-0.256,-0.276,0.532,-0.620,0.795,1.889,0.249,0.450,0.607,-0.327,0.465,-0.001
'0:00.338',-0.013,0.525,0.537,-0.256,-0.275,0.531,-0.612,0.792,1.891,0.248,0.454,0.610,-0.327,0.469,-0.003
'0:00.339',-0.008,0.526,0.534,-0.259,-0.272,0.530,-0.604,0.789,1.899,0.244,0.456,0.612,-0.325,0.479,-0.009
'0:00.340',-0.011,0.523,0.534,-0.256,-0.273,0.529,-0.605,0.787,1.905,0.243,0.457,0.612,-0.322,0.480,-0.007
'0:00.341',-0.006,0.530,0.536,-0.262,-0.272,0.533,-0.608,0.781,1.904,0.239,0.456,0.611,-0.321,0.486,-0.006
'0:00.342',-0.003,0.536,0.539,-0.267,-0.271,0.537,-0.610,0.776,1.903,0.240,0.456,0.608,-0.321,0.491,-0.005
'0:00.343',-0.005,0.538,0.543,-0.267,-0.274,0.541,-0.613,0.770,1.901,0.239,0.456,0.606,-0.320,0.492,-0.002
'0:00.344',-0.012,0.535,0.548,-0.262,-0.280,0.542,-0.613,0.765,1.896,0.242,0.453,0.605,-0.319,0.495,0.002
'0:00.345',-0.015,0.532,0.547,-0.259,-0.281,0.540,-0.609,0.762,1.897,0.243,0.454,0.609,-0.317,0.497,0.003
'0:00.346',-0.011,0.538,0.549,-0.264,-0.280,0.544,-0.605,0.756,1.901,0.240,0.453,0.607,-0.312,0.506,0.003
'0:00.347',-0.006,0.543,0.549,-0.269,-0.278,0.546,-0.602,0.749,1.903,0.237,0.450,0.606,-0.308,0.514,0.003
'0:00.348',-0.005,0.548,0.553,-0.271,-0.280,0.551,-0.611,0.743,1.896,0.238,0.448,0.602,-0.307,0.512,0.007
'0:00.349',-0.007,0.551,0.558,-0.272,-0.283,0.555,-0.625,0.737,1.881,0.244,0.446,0.601,-0.307,0.508,0.011
'0:00.350',-0.005,0.556,0.561,-0.276,-0.283,0.559,-0.631,0.732,1.869,0.248,0.445,0.603,-0.306,0.508,0.013
'0:00.351',-0.009,0.552,0.562,-0.271,-0.286,0.557,-0.633,0.727,1.861,0.249,0.445,0.604,-0.303,0.504,0.019
'0:00.352',-0.011,0.552,0.563,-0.271,-0.287,0.557,-0.633,0.722,1.853,0.249,0.445,0.607,-0.298,0.503,0.021
'0:00.353',-0.013,0.549,0.561,-0.268,-0.287,0.555,-0.637,0.715,1.843,0.250,0.444,0.608,-0.294,0.504,0.021
'0:00.354',-0.011,0.547,0.558,-0.268,-0.284,0.553,-0.641,0.707,1.835,0.247,0.439,0.606,-0.290,0.503,0.021
'0:00.355',-0.011,0.552,0.562,-0.270,-0.287,0.557,-0.646,0.698,1.821,0.249,0.430,0.601,-0.287,0.500,0.026
'0:00.356',-0.017,0.546,0.563,-0.265,-0.290,0.555,-0.657,0.689,1.801,0.254,0.426,0.599,-0.284,0.490,0.033
'0:00.357',-0.025,0.540,0.565,-0.258,-0.295,0.553,-0.663,0.682,1.784,0.260,0.421,0.597,-0.281,0.480,0.041
'0:00.358',-0.028,0.534,0.561,-0.253,-0.295,0.548,-0.658,0.674,1.776,0.262,0.416,0.595,-0.275,0.481,0.043
'0:00.359',-0.026,0.527,0.553,-0.251,-0.289,0.541,-0.650,0.665,1.774,0.258,0.408,0.592,-0.266,0.484,0.042
'0:00.360',-0.032,0.520,0.551,-0.244,-0.291,0.536,-0.647,0.655,1.769,0.257,0.401,0.585,-0.260,0.484,0.048
'0:00.361',-0.029,0.523,0.553,-0.247,-0.291,0.538,-0.648,0.645,1.758,0.256,0.391,0.579,-0.255,0.483,0.051
'0:00.362',-0.032,0.523,0.555,-0.246,-0.293,0.539,-0.652,0.635,1.746,0.257,0.379,0.574,-0.246,0.481,0.059
'0:00.363',-0.040,0.520,0.559,-0.240,-0.299,0.540,-0.654,0.627,1.734,0.258,0.369,0.567,-0.238,0.479,0.070
'0:00.364',-0.048,0.512,0.559,-0.232,-0.303,0.536,-0.656,0.620,1.720,0.263,0.360,0.560,-0.235,0.476,0.079
'0:00.365',-0.051,0.503,0.554,-0.226,-0.303,0.529,-0.655,0.611,1.710,0.264,0.353,0.557,-0.229,0.472,0.086
'0:00.366',-0.051,0.499,0.551,-0.224,-0.301,0.525,-0.648,0.601,1.704,0.262,0.341,0.548,-0.222,0.470,0.089
'0:00.367',-0.051,0.495,0.546,-0.223,-0.298,0.521,-0.647,0.591,1.698,0.260,0.331,0.541,-0.214,0.474,0.093
'0:00.368',-0.051,0.495,0.546,-0.223,-0.298,0.521,-0.656,0.583,1.683,0.261,0.320,0.534,-0.209,0.469,0.101
'0:00.369',-0.054,0.492,0.547,-0.219,-0.300,0.520,-0.670,0.574,1.661,0.268,0.308,0.527,-0.206,0.458,0.113
'0:00.370',-0.057,0.489,0.545,-0.216,-0.301,0.517,-0.676,0.564,1.639,0.271,0.300,0.522,-0.203,0.450,0.117
'0:00.371',-0.064,0.478,0.542,-0.207,-0.302,0.510,-0.673,0.558,1.621,0.274,0.292,0.514,-0.200,0.441,0.124
'0:00.372',-0.068,0.466,0.534,-0.200,-0.301,0.500,-0.673,0.550,1.609,0.277,0.284,0.508,-0.194,0.433,0.131
'0:00.373',-0.071,0.454,0.525,-0.191,-0.298,0.489,-0.672,0.543,1.597,0.279,0.276,0.506,-0.189,0.421,0.135
'0:00.374',-0.073,0.448,0.521,-0.188,-0.297,0.485,-0.673,0.533,1.583,0.277,0.266,0.501,-0.182,0.417,0.139
'0:00.375',-0.079,0.443,0.521,-0.182,-0.300,0.482,-0.678,0.523,1.565,0.278,0.254,0.491,-0.177,0.407,0.145
'0:00.376',-0.086,0.430,0.517,-0.172,-0.302,0.474,-0.688,0.516,1.544,0.281,0.246,0.484,-0.175,0.395,0.154
'0:00.377',-0.093,0.420,0.512,-0.164,-0.302,0.467,-0.692,0.508,1.526,0.284,0.237,0.479,-0.172,0.384,0.165
'0:00.378',-0.098,0.407,0.506,-0.155,-0.302,0.457,-0.684,0.500,1.515,0.285,0.227,0.474,-0.166,0.377,0.171
'0:00.379',-0.102,0.395,0.497,-0.146,-0.299,0.447,-0.674,0.490,1.510,0.282,0.217,0.469,-0.158,0.375,0.174
'0:00.380',-0.114,0.379,0.492,-0.133,-0.303,0.436,-0.668,0.480,1.501,0.281,0.204,0.459,-0.152,0.369,0.183
'0:00.381',-0.112,0.377,0.488,-0.133,-0.300,0.433,-0.673,0.470,1.490,0.280,0.194,0.451,-0.147,0.369,0.188
'0:00.382',-0.111,0.374,0.484,-0.132,-0.297,0.429,-0.679,0.462,1.480,0.281,0.183,0.443,-0.141,0.363,0.195
'0:00.383',-0.118,0.366,0.485,-0.124,-0.301,0.426,-0.676,0.455,1.470,0.283,0.171,0.433,-0.136,0.357,0.203
'0:00.384',-0.123,0.356,0.479,-0.117,-0.301,0.418,-0.678,0.447,1.458,0.286,0.159,0.427,-0.130,0.351,0.213
'0:00.385',-0.126,0.345,0.471,-0.110,-0.298,0.408,-0.676,0.440,1.450,0.287,0.152,0.423,-0.122,0.345,0.220
'0:00.386',-0.129,0.341,0.469,-0.106,-0.299,0.405,-0.670,0.432,1.447,0.282,0.143,0.416,-0.116,0.347,0.225
'0:00.387',-0.127,0.336,0.463,-0.104,-0.295,0.400,-0.670,0.423,1.442,0.280,0.132,0.409,-0.111,0.346,0.228
'0:00.388',-0.128,0.332,0.460,-0.102,-0.294,0.396,-0.678,0.414,1.429,0.281,0.120,0.399,-0.109,0.340,0.234
'0:00.389',-0.133,0.328,0.461,-0.098,-0.297,0.395,-0.693,0.407,1.409,0.285,0.113,0.392,-0.108,0.330,0.243
'0:00.390',-0.135,0.323,0.458,-0.094,-0.296,0.391,-0.699,0.400,1.392,0.287,0.104,0.388,-0.106,0.322,0.251
'0:00.391',-0.142,0.308,0.451,-0.083,-0.297,0.380,-0.698,0.395,1.380,0.288,0.096,0.382,-0.104,0.311,0.258
'0:00.392',-0.144,0.300,0.444,-0.079,-0.294,0.372,-0.699,0.390,1.371,0.289,0.090,0.379,-0.102,0.305,0.261
'0:00.393',-0.142,0.295,0.438,-0.077,-0.289,0.366,-0.698,0.384,1.361,0.289,0.086,0.378,-0.098,0.301,0.264
'0:00.394',-0.140,0.292,0.432,-0.077,-0.286,0.362,-0.699,0.378,1.353,0.286,0.080,0.373,-0.096,0.295,0.265
'0:00.395',-0.143,0.288,0.431,-0.072,-0.287,0.360,-0.702,0.373,1.341,0.287,0.069,0.366,-0.093,0.287,0.271
'0:00.396',-0.148,0.280,0.428,-0.066,-0.288,0.354,-0.711,0.370,1.324,0.291,0.065,0.363,-0.092,0.275,0.278
'0:00.397',-0.151,0.273,0.424,-0.061,-0.288,0.349,-0.716,0.366,1.312,0.296,0.059,0.360,-0.092,0.266,0.281
'0:00.398',-0.156,0.263,0.419,-0.053,-0.288,0.342,-0.708,0.361,1.308,0.297,0.058,0.360,-0.086,0.263,0.284
'0:00.399',-0.158,0.254,0.411,-0.049,-0.284,0.333,-0.697,0.355,1.308,0.292,0.051,0.354,-0.082,0.259,0.285
'0:00.400',-0.162,0.245,0.406,-0.042,-0.284,0.326,-0.690,0.352,1.307,0.292,0.043,0.346,-0.081,0.261,0.290
'0:00.401',-0.160,0.244,0.405,-0.043,-0.282,0.325,-0.693,0.346,1.302,0.290,0.037,0.343,-0.076,0.261,0.295
'0:00.402',-0.163,0.240,0.404,-0.039,-0.283,0.322,-0.699,0.342,1.296,0.290,0.029,0.336,-0.073,0.255,0.300
'0:00.403',-0.169,0.235,0.405,-0.033,-0.287,0.321,-0.701,0.339,1.290,0.289,0.022,0.330,-0.072,0.250,0.306
'0:00.404',-0.173,0.228,0.402,-0.028,-0.288,0.315,-0.700,0.335,1.287,0.291,0.017,0.327,-0.071,0.245,0.312
'0:00.405',-0.172,0.220,0.393,-0.024,-0.283,0.306,-0.699,0.332,1.286,0.292,0.014,0.327,-0.068,0.244,0.315
'0:00.406',-0.170,0.220,0.390,-0.025,-0.280,0.304,-0.691,0.329,1.290,0.289,0.009,0.324,-0.062,0.251,0.318
'0:00.407',-0.167,0.220,0.387,-0.026,-0.277,0.303,-0.688,0.323,1.290,0.285,0.003,0.318,-0.059,0.255,0.320
'0:00.408',-0.167,0.221,0.388,-0.027,-0.278,0.304,-0.698,0.320,1.284,0.285,-0.004,0.312,-0.059,0.249,0.325
'0:00.409',-0.169,0.222,0.391,-0.027,-0.280,0.307,-0.709,0.319,1.272,0.291,-0.006,0.310,-0.058,0.241,0.331
'0:00.410',-0.166,0.224,0.390,-0.029,-0.279,0.307,-0.714,0.314,1.260,0.292,-0.009,0.309,-0.058,0.235,0.332
'0:00.411',-0.174,0.213,0.388,-0.019,-0.281,0.301,-0.710,0.313,1.255,0.294,-0.009,0.306,-0.058,0.226,0.335
'0:00.412',-0.176,0.207,0.385,-0.015,-0.281,0.296,-0.709,0.310,1.251,0.295,-0.012,0.306,-0.057,0.223,0.336
'0:00.413',-0.174,0.203,0.378,-0.014,-0.276,0.290,-0.711,0.307,1.246,0.295,-0.013,0.307,-0.056,0.221,0.336
'0:00.414',-0.173,0.203,0.377,-0.015,-0.275,0.290,-0.711,0.303,1.242,0.293,-0.015,0.306,-0.052,0.219,0.335
'0:00.415',-0.174,0.204,0.379,-0.015,-0.277,0.291,-0.717,0.300,1.235,0.292,-0.019,0.302,-0.052,0.215,0.338
'0:00.416',-0.177,0.198,0.376,-0.011,-0.277,0.287,-0.724,0.299,1.226,0.297,-0.020,0.299,-0.057,0.205,0.340
'0:00.417',-0.181,0.194,0.375,-0.006,-0.279,0.284,-0.725,0.298,1.217,0.301,-0.021,0.298,-0.057,0.196,0.344
'0:00.418',-0.181,0.189,0.371,-0.004,-0.277,0.281,-0.717,0.298,1.217,0.301,-0.021,0.299,-0.054,0.197,0.344
'0:00.419',-0.183,0.183,0.367,0.000,-0.276,0.276,-0.704,0.295,1.224,0.297,-0.023,0.297,-0.051,0.200,0.342
'0:00.420',-0.191,0.172,0.363,0.009,-0.278,0.269,-0.702,0.293,1.228,0.296,-0.026,0.293,-0.051,0.197,0.344
'0:00.421',-0.188,0.176,0.364,0.005,-0.277,0.271,-0.707,0.288,1.226,0.294,-0.032,0.291,-0.048,0.201,0.345
'0:00.422',-0.187,0.178,0.365,0.004,-0.277,0.272,-0.708,0.286,1.224,0.293,-0.036,0.289,-0.045,0.201,0.349
'0:00.423',-0.189,0.178,0.367,0.005,-0.278,0.273,-0.710,0.283,1.224,0.292,-0.040,0.285,-0.044,0.200,0.354
'0:00.424',-0.194,0.172,0.367,0.011,-0.281,0.270,-0.713,0.283,1.221,0.294,-0.043,0.283,-0.044,0.198,0.358
'0:00.425',-0.193,0.169,0.361,0.012,-0.277,0.265,-0.709,0.283,1.225,0.295,-0.040,0.285,-0.043,0.198,0.359
'0:00.426',-0.188,0.172,0.360,0.008,-0.275,0.267,-0.701,0.281,1.232,0.292,-0.042,0.283,-0.041,0.205,0.358
'0:00.427',-0.184,0.174,0.358,0.005,-0.272,0.267,-0.700,0.280,1.238,0.288,-0.045,0.282,-0.038,0.210,0.354
'0:00.428',-0.180,0.180,0.361,0.000,-0.271,0.271,-0.706,0.280,1.234,0.289,-0.048,0.278,-0.040,0.211,0.356
'0:00.429',-0.179,0.184,0.363,-0.003,-0.272,0.274,-0.719,0.281,1.224,0.293,-0.048,0.277,-0.043,0.205,0.361
'0:00.430',-0.175,0.188,0.364,-0.006,-0.270,0.276,-0.723,0.279,1.216,0.294,-0.048,0.278,-0.044,0.203,0.363
'0:00.431',-0.183,0.178,0.362,0.002,-0.273,0.271,-0.720,0.282,1.214,0.295,-0.048,0.279,-0.046,0.198,0.365
'0:00.432',-0.186,0.175,0.361,0.005,-0.274,0.269,-0.721,0.280,1.212,0.295,-0.050,0.278,-0.045,0.193,0.364
'0:00.433',-0.184,0.173,0.358,0.005,-0.272,0.266,-0.723,0.278,1.208,0.293,-0.050,0.280,-0.043,0.189,0.363
'0:00.434',-0.180,0.173,0.354,0.004,-0.268,0.265,-0.722,0.279,1.207,0.289,-0.051,0.280,-0.043,0.189,0.360
'0:00.435',-0.178,0.179,0.358,0.000,-0.269,0.269,-0.725,0.276,1.204,0.290,-0.055,0.278,-0.043,0.189,0.361
'0:00.436',-0.185,0.171,0.356,0.007,-0.271,0.264,-0.732,0.278,1.195,0.296,-0.053,0.281,-0.043,0.178,0.363
'0:00.437',-0.192,0.166,0.358,0.013,-0.276,0.262,-0.733,0.278,1.188,0.300,-0.053,0.280,-0.044,0.170,0.367
'0:00.438',-0.189,0.164,0.353,0.013,-0.272,0.259,-0.726,0.277,1.190,0.300,-0.051,0.281,-0.044,0.174,0.365
'0:00.439',-0.188,0.159,0.347,0.015,-0.268,0.253,-0.713,0.276,1.198,0.295,-0.050,0.281,-0.042,0.182,0.362
'0:00.440',-0.193,0.152,0.345,0.020,-0.270,0.249,-0.709,0.276,1.204,0.294,-0.051,0.278,-0.042,0.182,0.363
'0:00.441',-0.188,0.158,0.346,0.015,-0.268,0.252,-0.713,0.273,1.204,0.292,-0.053,0.277,-0.040,0.185,0.363
'0:00.442',-0.189,0.162,0.351,0.013,-0.270,0.257,-0.713,0.273,1.204,0.292,-0.056,0.275,-0.038,0.190,0.365
'0:00.443',-0.190,0.165,0.355,0.013,-0.273,0.260,-0.714,0.272,1.204,0.294,-0.058,0.273,-0.037,0.190,0.367
'0:00.444',-0.193,0.162,0.356,0.015,-0.275,0.259,-0.714,0.273,1.204,0.296,-0.060,0.272,-0.036,0.190,0.369
'0:00.445',-0.196,0.153,0.350,0.021,-0.274,0.252,-0.710,0.275,1.206,0.296,-0.058,0.274,-0.035,0.191,0.369
'0:00.446',-0.192,0.158,0.350,0.017,-0.272,0.254,-0.703,0.273,1.212,0.293,-0.059,0.274,-0.033,0.201,0.368
'0:00.447',-0.189,0.161,0.350,0.013,-0.270,0.256,-0.701,0.273,1.218,0.291,-0.060,0.273,-0.030,0.205,0.366
'0:00.448',-0.189,0.163,0.352,0.013,-0.271,0.258,-0.710,0.271,1.214,0.288,-0.064,0.269,-0.030,0.203,0.369
'0:00.449',-0.192,0.166,0.357,0.013,-0.275,0.262,-0.722,0.271,1.206,0.291,-0.066,0.268,-0.035,0.198,0.372
'0:00.450',-0.186,0.171,0.357,0.008,-0.272,0.264,-0.727,0.270,1.200,0.293,-0.065,0.272,-0.034,0.195,0.370
'0:00.451',-0.192,0.164,0.356,0.014,-0.274,0.260,-0.725,0.273,1.198,0.295,-0.064,0.271,-0.036,0.192,0.371
'0:00.452',-0.198,0.157,0.355,0.021,-0.277,0.257,-0.723,0.274,1.198,0.296,-0.063,0.271,-0.037,0.189,0.369
'0:00.453',-0.197,0.155,0.352,0.021,-0.275,0.254,-0.724,0.274,1.200,0.295,-0.060,0.276,-0.036,0.189,0.366
'0:00.454',-0.189,0.161,0.350,0.015,-0.270,0.256,-0.724,0.275,1.200,0.293,-0.058,0.277,-0.037,0.188,0.363
'0:00.455',-0.186,0.166,0.352,0.011,-0.270,0.260,-0.725,0.275,1.199,0.295,-0.059,0.275,-0.037,0.186,0.362
'0:00.456',-0.193,0.159,0.352,0.017,-0.273,0.256,-0.736,0.276,1.192,0.299,-0.059,0.276,-0.042,0.176,0.363
'0:00.457',-0.199,0.152,0.351,0.024,-0.276,0.252,-0.736,0.276,1.185,0.301,-0.058,0.275,-0.044,0.169,0.365
'0:00.458',-0.201,0.146,0.347,0.027,-0.274,0.247,-0.725,0.277,1.186,0.300,-0.055,0.279,-0.041,0.170,0.364
'0:00.459',-0.197,0.144,0.342,0.026,-0.270,0.243,-0.715,0.277,1.196,0.295,-0.055,0.279,-0.039,0.176,0.360
'0:00.460',-0.199,0.141,0.340,0.029,-0.270,0.240,-0.710,0.277,1.204,0.294,-0.057,0.277,-0.039,0.181,0.361
'0:00.461',-0.195,0.146,0.342,0.025,-0.269,0.243,-0.711,0.277,1.204,0.292,-0.057,0.277,-0.037,0.182,0.360
'0:00.462',-0.195,0.148,0.344,0.023,-0.270,0.246,-0.709,0.275,1.204,0.293,-0.059,0.275,-0.036,0.184,0.363
'0:00.463',-0.195,0.150,0.346,0.022,-0.271,0.248,-0.708,0.276,1.207,0.294,-0.059,0.274,-0.036,0.188,0.365
'0:00.464',-0.196,0.148,0.344,0.024,-0.271,0.246,-0.706,0.277,1.208,0.296,-0.059,0.274,-0.036,0.185,0.367
'0:00.465',-0.198,0.143,0.342,0.028,-0.270,0.242,-0.702,0.276,1.210,0.298,-0.057,0.275,-0.036,0.185,0.366
'0:00.466',-0.197,0.145,0.343,0.025,-0.270,0.244,-0.695,0.275,1.218,0.293,-0.057,0.273,-0.033,0.194,0.366
'0:00.467',-0.193,0.148,0.341,0.022,-0.267,0.244,-0.689,0.275,1.225,0.292,-0.058,0.274,-0.031,0.197,0.363
'0:00.468',-0.189,0.151,0.341,0.018,-0.265,0.246,-0.700,0.276,1.224,0.291,-0.058,0.271,-0.033,0.191,0.364
'0:00.469',-0.190,0.155,0.345,0.017,-0.268,0.251,-0.712,0.277,1.216,0.295,-0.059,0.270,-0.036,0.183,0.368
'0:00.470',-0.187,0.160,0.347,0.013,-0.267,0.254,-0.719,0.276,1.210,0.298,-0.058,0.273,-0.036,0.181,0.365
'0:00.471',-0.193,0.152,0.346,0.021,-0.270,0.249,-0.723,0.277,1.208,0.299,-0.057,0.273,-0.036,0.180,0.367
'0:00.472',-0.195,0.150,0.345,0.022,-0.271,0.248,-0.721,0.280,1.210,0.301,-0.054,0.275,-0.037,0.181,0.364
'0:00.473',-0.191,0.150,0.342,0.020,-0.267,0.246,-0.719,0.282,1.211,0.300,-0.051,0.280,-0.037,0.179,0.362
'0:00.474',-0.185,0.154,0.340,0.016,-0.263,0.247,-0.719,0.282,1.212,0.297,-0.051,0.280,-0.037,0.179,0.359
'0:00.475',-0.184,0.159,0.344,0.013,-0.264,0.251,-0.725,0.282,1.210,0.297,-0.053,0.279,-0.039,0.180,0.361
'0:00.476',-0.189,0.154,0.344,0.017,-0.267,0.249,-0.732,0.283,1.202,0.300,-0.052,0.280,-0.041,0.172,0.362
'0:00.477',-0.196,0.151,0.348,0.022,-0.272,0.250,-0.731,0.283,1.195,0.304,-0.051,0.281,-0.042,0.167,0.365
'0:00.478',-0.201,0.146,0.347,0.027,-0.274,0.246,-0.722,0.283,1.199,0.305,-0.048,0.283,-0.041,0.166,0.365
'0:00.479',-0.199,0.144,0.344,0.028,-0.272,0.244,-0.707,0.282,1.208,0.300,-0.049,0.282,-0.038,0.172,0.362
'0:00.480',-0.200,0.140,0.340,0.030,-0.270,0.240,-0.700,0.283,1.212,0.299,-0.052,0.281,-0.037,0.174,0.363
'0:00.481',-0.197,0.142,0.340,0.028,-0.269,0.241,-0.702,0.281,1.214,0.297,-0.054,0.278,-0.037,0.175,0.361
'0:00.482',-0.198,0.145,0.343,0.026,-0.271,0.244,-0.705,0.280,1.215,0.295,-0.056,0.275,-0.037,0.180,0.363
'0:00.483',-0.198,0.147,0.345,0.025,-0.272,0.246,-0.702,0.278,1.216,0.294,-0.057,0.272,-0.038,0.182,0.364
'0:00.484',-0.203,0.144,0.347,0.029,-0.276,0.246,-0.700,0.278,1.216,0.297,-0.057,0.273,-0.038,0.179,0.367
'0:00.485',-0.202,0.141,0.344,0.030,-0.273,0.242,-0.695,0.279,1.219,0.299,-0.054,0.276,-0.038,0.180,0.366
'0:00.486',-0.196,0.146,0.342,0.025,-0.269,0.244,-0.688,0.279,1.226,0.294,-0.057,0.273,-0.035,0.189,0.364
'0:00.487',-0.193,0.148,0.342,0.022,-0.268,0.245,-0.689,0.277,1.230,0.289,-0.058,0.272,-0.033,0.196,0.361
'0:00.488',-0.193,0.150,0.344,0.021,-0.269,0.247,-0.696,0.277,1.227,0.289,-0.060,0.269,-0.034,0.194,0.363
'0:00.489',-0.193,0.155,0.349,0.019,-0.272,0.253,-0.706,0.277,1.220,0.294,-0.061,0.270,-0.035,0.191,0.368
'0:00.490',-0.189,0.162,0.350,0.013,-0.270,0.257,-0.711,0.280,1.216,0.296,-0.057,0.273,-0.036,0.190,0.366
'0:00.491',-0.194,0.153,0.348,0.021,-0.272,0.251,-0.710,0.279,1.212,0.298,-0.056,0.273,-0.036,0.184,0.367
'0:00.492',-0.195,0.148,0.344,0.023,-0.270,0.246,-0.711,0.277,1.209,0.297,-0.054,0.275,-0.036,0.184,0.368
'0:00.493',-0.194,0.145,0.340,0.024,-0.267,0.243,-0.712,0.280,1.210,0.296,-0.050,0.279,-0.036,0.183,0.367
'0:00.494',-0.191,0.150,0.341,0.020,-0.266,0.246,-0.712,0.278,1.210,0.295,-0.051,0.279,-0.035,0.186,0.364
'0:00.495',-0.188,0.154,0.343,0.017,-0.266,0.248,-0.717,0.279,1.205,0.294,-0.052,0.276,-0.036,0.184,0.364
'0:00.496',-0.192,0.149,0.342,0.021,-0.268,0.246,-0.726,0.281,1.197,0.298,-0.049,0.279,-0.040,0.173,0.366
'0:00.497',-0.197,0.146,0.344,0.025,-0.271,0.245,-0.728,0.281,1.190,0.302,-0.050,0.278,-0.041,0.168,0.371
'0:00.498',-0.195,0.144,0.340,0.025,-0.267,0.242,-0.721,0.281,1.192,0.303,-0.047,0.280,-0.040,0.171,0.368
'0:00.499',-0.193,0.141,0.335,0.025,-0.264,0.238,-0.711,0.281,1.200,0.299,-0.048,0.281,-0.037,0.175,0.365
'0:00.500',-0.197,0.137,0.334,0.029,-0.266,0.236,-0.706,0.282,1.208,0.299,-0.051,0.279,-0.037,0.176,0.367
'0:00.501',-0.192,0.143,0.335,0.024,-0.264,0.239,-0.706,0.281,1.210,0.297,-0.051,0.277,-0.036,0.179,0.365
'0:00.502',-0.191,0.145,0.337,0.022,-0.264,0.241,-0.706,0.281,1.210,0.296,-0.051,0.276,-0.035,0.181,0.367
'0:00.503',-0.193,0.147,0.341,0.022,-0.267,0.244,-0.706,0.281,1.210,0.297,-0.053,0.274,-0.035,0.185,0.369
'0:00.504',-0.196,0.145,0.342,0.025,-0.269,0.244,-0.706,0.281,1.210,0.300,-0.054,0.275,-0.036,0.184,0.372
'0:00.505',-0.199,0.141,0.341,0.029,-0.270,0.241,-0.703,0.281,1.212,0.300,-0.051,0.275,-0.035,0.182,0.373
'0:00.506',-0.197,0.144,0.342,0.026,-0.270,0.243,-0.694,0.281,1.220,0.297,-0.053,0.273,-0.032,0.189,0.371
'0:00.507',-0.191,0.149,0.340,0.021,-0.266,0.245,-0.693,0.280,1.230,0.292,-0.052,0.272,-0.031,0.197,0.367
'0:00.508',-0.191,0.152,0.344,0.019,-0.268,0.248,-0.700,0.280,1.228,0.294,-0.054,0.267,-0.032,0.196,0.370
'0:00.509',-0.192,0.156,0.348,0.018,-0.271,0.253,-0.713,0.280,1.218,0.299,-0.058,0.265,-0.035,0.191,0.373
'0:00.510',-0.188,0.161,0.348,0.013,-0.269,0.255,-0.720,0.278,1.211,0.298,-0.058,0.268,-0.035,0.192,0.373
'0:00.511',-0.192,0.154,0.347,0.019,-0.270,0.251,-0.718,0.279,1.207,0.299,-0.057,0.271,-0.035,0.189,0.376
'0:00.512',-0.196,0.149,0.346,0.023,-0.272,0.248,-0.716,0.279,1.204,0.297,-0.056,0.270,-0.037,0.184,0.372
'0:00.513',-0.197,0.145,0.343,0.025,-0.270,0.244,-0.716,0.280,1.205,0.297,-0.056,0.271,-0.037,0.180,0.370
'0:00.514',-0.191,0.148,0.340,0.021,-0.266,0.244,-0.718,0.279,1.205,0.296,-0.053,0.272,-0.035,0.180,0.368
'0:00.515',-0.188,0.152,0.341,0.018,-0.265,0.246,-0.721,0.279,1.200,0.295,-0.056,0.269,-0.036,0.181,0.368
'0:00.516',-0.193,0.147,0.340,0.023,-0.267,0.243,-0.732,0.281,1.193,0.299,-0.055,0.270,-0.039,0.173,0.369
'0:00.517',-0.200,0.143,0.343,0.029,-0.272,0.243,-0.734,0.281,1.186,0.304,-0.055,0.271,-0.042,0.166,0.372
'0:00.518',-0.202,0.138,0.340,0.032,-0.271,0.239,-0.724,0.281,1.187,0.305,-0.055,0.273,-0.040,0.167,0.371
'0:00.519',-0.202,0.133,0.335,0.035,-0.269,0.234,-0.714,0.280,1.194,0.301,-0.053,0.275,-0.036,0.170,0.367
'0:00.520',-0.205,0.127,0.333,0.040,-0.269,0.230,-0.707,0.281,1.200,0.300,-0.054,0.273,-0.035,0.169,0.368
'0:00.521',-0.200,0.133,0.333,0.033,-0.267,0.234,-0.708,0.281,1.202,0.298,-0.055,0.273,-0.033,0.176,0.367
'0:00.522',-0.199,0.139,0.338,0.030,-0.269,0.238,-0.708,0.281,1.204,0.299,-0.055,0.272,-0.032,0.179,0.367
'0:00.523',-0.201,0.140,0.341,0.030,-0.271,0.240,-0.709,0.278,1.204,0.298,-0.059,0.268,-0.032,0.177,0.370
'0:00.524',-0.203,0.136,0.339,0.034,-0.272,0.238,-0.711,0.277,1.204,0.299,-0.058,0.267,-0.034,0.177,0.373
'0:00.525',-0.204,0.132,0.337,0.036,-0.271,0.234,-0.707,0.280,1.208,0.301,-0.055,0.269,-0.033,0.179,0.372
'0:00.526',-0.201,0.137,0.338,0.032,-0.269,0.237,-0.696,0.280,1.216,0.299,-0.056,0.267,-0.030,0.190,0.372
'0:00.527',-0.195,0.141,0.336,0.028,-0.266,0.238,-0.695,0.277,1.223,0.296,-0.056,0.266,-0.029,0.197,0.369
'0:00.528',-0.195,0.143,0.339,0.026,-0.268,0.241,-0.705,0.275,1.220,0.295,-0.060,0.263,-0.029,0.191,0.372
'0:00.529',-0.197,0.146,0.343,0.025,-0.270,0.244,-0.722,0.273,1.209,0.299,-0.062,0.262,-0.033,0.185,0.376
'0:00.530',-0.192,0.152,0.345,0.020,-0.269,0.249,-0.728,0.274,1.204,0.301,-0.060,0.264,-0.035,0.186,0.375
'0:00.531',-0.198,0.145,0.344,0.026,-0.272,0.245,-0.724,0.276,1.202,0.303,-0.060,0.265,-0.035,0.179,0.378
'0:00.532',-0.198,0.141,0.339,0.029,-0.269,0.240,-0.725,0.274,1.202,0.304,-0.058,0.267,-0.035,0.176,0.376
'0:00.533',-0.197,0.139,0.336,0.029,-0.267,0.238,-0.723,0.275,1.201,0.305,-0.056,0.272,-0.034,0.174,0.374
'0:00.534',-0.193,0.143,0.337,0.025,-0.265,0.240,-0.722,0.275,1.199,0.303,-0.058,0.271,-0.033,0.173,0.370
'0:00.535',-0.189,0.149,0.339,0.019,-0.264,0.244,-0.724,0.275,1.198,0.303,-0.059,0.269,-0.034,0.171,0.371
'0:00.536',-0.193,0.145,0.340,0.024,-0.267,0.243,-0.732,0.275,1.191,0.306,-0.059,0.271,-0.034,0.163,0.373
'0:00.537',-0.198,0.143,0.342,0.028,-0.270,0.242,-0.735,0.276,1.185,0.308,-0.057,0.274,-0.034,0.161,0.376
'0:00.538',-0.200,0.139,0.339,0.030,-0.270,0.239,-0.726,0.277,1.188,0.309,-0.053,0.279,-0.032,0.163,0.375
'0:00.539',-0.200,0.135,0.336,0.033,-0.269,0.236,-0.712,0.276,1.196,0.306,-0.053,0.280,-0.027,0.169,0.371
'0:00.540',-0.204,0.130,0.334,0.037,-0.270,0.232,-0.708,0.277,1.200,0.303,-0.054,0.277,-0.028,0.170,0.373
'0:00.541',-0.200,0.135,0.336,0.033,-0.268,0.235,-0.714,0.274,1.199,0.302,-0.057,0.276,-0.027,0.174,0.371
'0:00.542',-0.200,0.138,0.338,0.031,-0.269,0.238,-0.717,0.271,1.199,0.303,-0.058,0.274,-0.026,0.175,0.372
'0:00.543',-0.201,0.139,0.340,0.032,-0.271,0.239,-0.716,0.271,1.200,0.303,-0.060,0.271,-0.026,0.173,0.375
'0:00.544',-0.205,0.137,0.342,0.035,-0.274,0.239,-0.717,0.271,1.200,0.306,-0.061,0.271,-0.027,0.174,0.379
'0:00.545',-0.206,0.131,0.338,0.038,-0.273,0.234,-0.715,0.273,1.204,0.306,-0.059,0.272,-0.028,0.173,0.378
'0:00.546',-0.203,0.133,0.337,0.035,-0.271,0.235,-0.707,0.272,1.211,0.303,-0.060,0.271,-0.026,0.182,0.374
'0:00.547',-0.200,0.135,0.336,0.033,-0.268,0.235,-0.704,0.270,1.216,0.299,-0.061,0.269,-0.025,0.189,0.372
'0:00.548',-0.201,0.138,0.339,0.031,-0.270,0.238,-0.712,0.268,1.212,0.299,-0.065,0.265,-0.025,0.185,0.375
'0:00.549',-0.202,0.141,0.344,0.030,-0.274,0.243,-0.722,0.268,1.202,0.303,-0.067,0.264,-0.026,0.180,0.380
'0:00.550',-0.198,0.147,0.345,0.025,-0.272,0.246,-0.727,0.266,1.197,0.305,-0.064,0.268,-0.026,0.180,0.379
'0:00.551',-0.202,0.142,0.344,0.029,-0.274,0.243,-0.726,0.267,1.195,0.307,-0.062,0.269,-0.027,0.175,0.380
'0:00.552',-0.204,0.138,0.342,0.033,-0.274,0.240,-0.725,0.269,1.194,0.310,-0.059,0.272,-0.027,0.173,0.380
'0:00.553',-0.202,0.137,0.339,0.032,-0.270,0.238,-0.720,0.270,1.196,0.311,-0.057,0.275,-0.026,0.173,0.377
'0:00.554',-0.196,0.141,0.338,0.028,-0.267,0.239,-0.721,0.269,1.196,0.308,-0.058,0.274,-0.027,0.172,0.373
'0:00.555',-0.197,0.143,0.341,0.026,-0.269,0.242,-0.727,0.268,1.192,0.308,-0.059,0.273,-0.027,0.170,0.374
'0:00.556',-0.199,0.141,0.340,0.029,-0.269,0.240,-0.732,0.270,1.185,0.312,-0.057,0.276,-0.030,0.163,0.376
'0:00.557',-0.201,0.139,0.340,0.031,-0.271,0.239,-0.732,0.271,1.179,0.317,-0.055,0.276,-0.034,0.158,0.381
'0:00.558',-0.203,0.136,0.339,0.034,-0.271,0.237,-0.723,0.272,1.179,0.318,-0.053,0.278,-0.034,0.163,0.379
'0:00.559',-0.204,0.128,0.332,0.038,-0.268,0.230,-0.714,0.270,1.187,0.313,-0.053,0.279,-0.029,0.166,0.376
'0:00.560',-0.211,0.119,0.332,0.045,-0.272,0.226,-0.707,0.270,1.191,0.311,-0.053,0.279,-0.026,0.165,0.379
'0:00.561',-0.206,0.127,0.334,0.040,-0.271,0.231,-0.710,0.270,1.194,0.309,-0.053,0.277,-0.026,0.171,0.377
'0:00.562',-0.203,0.131,0.335,0.036,-0.269,0.233,-0.712,0.270,1.196,0.308,-0.055,0.276,-0.025,0.172,0.379
'0:00.563',-0.204,0.134,0.338,0.035,-0.272,0.236,-0.713,0.270,1.195,0.309,-0.058,0.272,-0.026,0.172,0.381
'0:00.564',-0.207,0.130,0.338,0.039,-0.273,0.234,-0.715,0.270,1.195,0.313,-0.058,0.273,-0.025,0.171,0.385
'0:00.565',-0.208,0.127,0.336,0.041,-0.272,0.232,-0.710,0.271,1.198,0.314,-0.055,0.277,-0.025,0.170,0.383
'0:00.566',-0.203,0.131,0.335,0.036,-0.269,0.233,-0.703,0.270,1.206,0.310,-0.056,0.275,-0.022,0.176,0.381
'0:00.567',-0.195,0.136,0.330,0.029,-0.263,0.233,-0.702,0.268,1.213,0.306,-0.058,0.273,-0.021,0.185,0.379
'0:00.568',-0.196,0.141,0.336,0.028,-0.266,0.238,-0.709,0.268,1.209,0.305,-0.061,0.268,-0.024,0.184,0.381
'0:00.569',-0.201,0.142,0.343,0.029,-0.272,0.243,-0.721,0.268,1.200,0.312,-0.064,0.267,-0.026,0.176,0.386
'0:00.570',-0.199,0.143,0.343,0.028,-0.272,0.243,-0.728,0.265,1.190,0.315,-0.064,0.267,-0.028,0.172,0.384
'0:00.571',-0.203,0.137,0.341,0.034,-0.272,0.239,-0.725,0.266,1.188,0.316,-0.064,0.267,-0.028,0.168,0.386
'0:00.572',-0.201,0.135,0.336,0.033,-0.269,0.236,-0.725,0.267,1.188,0.316,-0.062,0.272,-0.028,0.169,0.384
'0:00.573',-0.196,0.133,0.329,0.032,-0.263,0.231,-0.727,0.268,1.187,0.315,-0.060,0.273,-0.028,0.167,0.382
'0:00.574',-0.190,0.137,0.327,0.026,-0.259,0.232,-0.725,0.266,1.188,0.312,-0.060,0.272,-0.027,0.170,0.380
'0:00.575',-0.191,0.141,0.333,0.025,-0.262,0.237,-0.727,0.266,1.185,0.315,-0.062,0.269,-0.026,0.169,0.381
'0:00.576',-0.196,0.137,0.333,0.030,-0.265,0.234,-0.736,0.267,1.175,0.319,-0.060,0.270,-0.028,0.158,0.384
'0:00.577',-0.201,0.133,0.334,0.034,-0.268,0.234,-0.736,0.265,1.166,0.321,-0.061,0.271,-0.029,0.151,0.386
'0:00.578',-0.202,0.130,0.332,0.036,-0.267,0.231,-0.729,0.265,1.168,0.321,-0.060,0.274,-0.029,0.154,0.383
'0:00.579',-0.201,0.127,0.328,0.037,-0.265,0.228,-0.716,0.263,1.177,0.315,-0.060,0.273,-0.026,0.162,0.381
'0:00.580',-0.201,0.121,0.323,0.040,-0.262,0.223,-0.712,0.262,1.183,0.312,-0.063,0.270,-0.025,0.167,0.383
'0:00.581',-0.194,0.127,0.321,0.034,-0.258,0.225,-0.716,0.261,1.185,0.309,-0.065,0.270,-0.024,0.169,0.382
'0:00.582',-0.198,0.127,0.326,0.035,-0.263,0.227,-0.716,0.260,1.187,0.309,-0.067,0.268,-0.024,0.167,0.384
'0:00.583',-0.203,0.128,0.331,0.037,-0.267,0.229,-0.718,0.260,1.187,0.311,-0.069,0.266,-0.024,0.165,0.386
'0:00.584',-0.207,0.127,0.334,0.041,-0.271,0.231,-0.720,0.260,1.187,0.315,-0.070,0.267,-0.024,0.165,0.389
'0:00.585',-0.206,0.123,0.330,0.041,-0.268,0.227,-0.718,0.261,1.190,0.316,-0.067,0.269,-0.022,0.171,0.388
'0:00.586',-0.203,0.126,0.329,0.038,-0.266,0.228,-0.709,0.258,1.196,0.311,-0.067,0.267,-0.018,0.177,0.387
'0:00.587',-0.200,0.129,0.329,0.035,-0.265,0.229,-0.710,0.256,1.201,0.305,-0.067,0.266,-0.017,0.185,0.385
'0:00.588',-0.200,0.130,0.330,0.035,-0.265,0.230,-0.719,0.255,1.198,0.306,-0.070,0.262,-0.019,0.182,0.386
'0:00.589',-0.202,0.132,0.334,0.035,-0.268,0.233,-0.731,0.253,1.190,0.311,-0.071,0.259,-0.023,0.174,0.389
'0:00.590',-0.200,0.135,0.335,0.033,-0.268,0.235,-0.736,0.253,1.183,0.314,-0.070,0.263,-0.023,0.171,0.388
'0:00.591',-0.203,0.129,0.333,0.037,-0.268,0.231,-0.733,0.253,1.181,0.315,-0.070,0.265,-0.022,0.165,0.390
'0:00.592',-0.202,0.126,0.329,0.038,-0.266,0.228,-0.733,0.254,1.181,0.315,-0.067,0.266,-0.022,0.164,0.389
'0:00.593',-0.200,0.123,0.324,0.038,-0.263,0.224,-0.729,0.257,1.182,0.315,-0.064,0.270,-0.023,0.162,0.386
'0:00.594',-0.196,0.128,0.324,0.034,-0.260,0.226,-0.729,0.256,1.182,0.312,-0.064,0.271,-0.023,0.163,0.385
'0:00.595',-0.196,0.131,0.327,0.032,-0.262,0.230,-0.732,0.255,1.179,0.312,-0.065,0.271,-0.023,0.163,0.386
'0:00.596',-0.198,0.126,0.325,0.036,-0.262,0.226,-0.739,0.256,1.169,0.315,-0.064,0.272,-0.025,0.153,0.387
'0:00.597',-0.201,0.123,0.325,0.038,-0.264,0.225,-0.743,0.256,1.162,0.319,-0.062,0.275,-0.024,0.148,0.389
'0:00.598',-0.202,0.121,0.323,0.040,-0.263,0.223,-0.735,0.255,1.166,0.320,-0.059,0.276,-0.024,0.151,0.388
'0:00.599',-0.201,0.117,0.318,0.042,-0.260,0.218,-0.723,0.255,1.175,0.315,-0.059,0.275,-0.024,0.155,0.384
'0:00.600',-0.206,0.111,0.317,0.048,-0.262,0.213,-0.716,0.256,1.182,0.315,-0.061,0.274,-0.022,0.156,0.385
'0:00.601',-0.201,0.117,0.318,0.042,-0.260,0.217,-0.715,0.255,1.183,0.312,-0.065,0.272,-0.021,0.165,0.384
'0:00.602',-0.201,0.118,0.320,0.041,-0.261,0.220,-0.718,0.253,1.183,0.310,-0.068,0.269,-0.021,0.165,0.386
'0:00.603',-0.204,0.116,0.321,0.044,-0.263,0.218,-0.722,0.250,1.182,0.309,-0.070,0.266,-0.021,0.161,0.390
'0:00.604',-0.208,0.112,0.321,0.048,-0.265,0.216,-0.723,0.254,1.183,0.313,-0.068,0.266,-0.020,0.161,0.394
'0:00.605',-0.212,0.107,0.320,0.052,-0.267,0.213,-0.721,0.254,1.185,0.315,-0.066,0.268,-0.018,0.164,0.393
'0:00.606',-0.210,0.110,0.321,0.050,-0.266,0.215,-0.710,0.253,1.192,0.311,-0.067,0.266,-0.016,0.173,0.392
'0:00.607',-0.204,0.113,0.318,0.046,-0.262,0.215,-0.707,0.252,1.199,0.306,-0.068,0.266,-0.013,0.180,0.391
'0:00.608',-0.205,0.117,0.323,0.044,-0.265,0.221,-0.717,0.250,1.194,0.306,-0.070,0.262,-0.013,0.177,0.394
'0:00.609',-0.208,0.119,0.328,0.044,-0.268,0.224,-0.729,0.248,1.183,0.311,-0.072,0.262,-0.015,0.170,0.399
'0:00.610',-0.204,0.122,0.327,0.041,-0.266,0.225,-0.736,0.248,1.177,0.312,-0.071,0.264,-0.016,0.166,0.398
'0:00.611',-0.207,0.117,0.326,0.045,-0.267,0.222,-0.733,0.252,1.175,0.314,-0.068,0.264,-0.018,0.162,0.398
'0:00.612',-0.207,0.114,0.321,0.046,-0.265,0.218,-0.731,0.253,1.174,0.314,-0.066,0.266,-0.018,0.160,0.397
'0:00.613',-0.207,0.111,0.319,0.048,-0.263,0.214,-0.731,0.253,1.174,0.312,-0.065,0.268,-0.019,0.158,0.395
'0:00.614',-0.203,0.113,0.317,0.045,-0.260,0.215,-0.731,0.252,1.173,0.309,-0.065,0.267,-0.020,0.158,0.392
'0:00.615',-0.201,0.116,0.318,0.043,-0.260,0.217,-0.735,0.251,1.167,0.310,-0.068,0.264,-0.022,0.159,0.393
'0:00.616',-0.205,0.111,0.317,0.047,-0.261,0.214,-0.745,0.250,1.157,0.312,-0.068,0.264,-0.025,0.150,0.394
'0:00.617',-0.208,0.110,0.318,0.050,-0.263,0.214,-0.748,0.252,1.151,0.316,-0.067,0.268,-0.025,0.143,0.395
'0:00.618',-0.208,0.106,0.315,0.051,-0.262,0.210,-0.743,0.253,1.155,0.316,-0.064,0.272,-0.024,0.143,0.394
'0:00.619',-0.206,0.102,0.307,0.052,-0.257,0.205,-0.732,0.255,1.165,0.312,-0.065,0.272,-0.021,0.147,0.390
'0:00.620',-0.207,0.100,0.307,0.053,-0.257,0.203,-0.726,0.257,1.172,0.311,-0.066,0.271,-0.021,0.153,0.391
'0:00.621',-0.203,0.105,0.308,0.049,-0.256,0.207,-0.730,0.254,1.173,0.308,-0.068,0.268,-0.019,0.154,0.391
'0:00.622',-0.202,0.107,0.309,0.048,-0.256,0.208,-0.730,0.254,1.173,0.307,-0.069,0.266,-0.018,0.155,0.393
'0:00.623',-0.201,0.109,0.311,0.046,-0.256,0.210,-0.729,0.254,1.173,0.308,-0.070,0.265,-0.018,0.158,0.396
'0:00.624',-0.206,0.106,0.313,0.050,-0.260,0.209,-0.730,0.251,1.172,0.310,-0.070,0.265,-0.017,0.158,0.399
'0:00.625',-0.211,0.102,0.313,0.054,-0.263,0.207,-0.728,0.249,1.174,0.309,-0.070,0.266,-0.017,0.158,0.399
'0:00.626',-0.206,0.104,0.311,0.051,-0.259,0.208,-0.722,0.249,1.183,0.307,-0.072,0.266,-0.015,0.164,0.397
'0:00.627',-0.201,0.107,0.309,0.047,-0.256,0.208,-0.720,0.250,1.190,0.304,-0.073,0.267,-0.011,0.171,0.393
'0:00.628',-0.202,0.112,0.314,0.045,-0.258,0.213,-0.728,0.250,1.187,0.305,-0.075,0.261,-0.013,0.168,0.395
'0:00.629',-0.202,0.116,0.318,0.043,-0.260,0.217,-0.742,0.250,1.177,0.307,-0.075,0.260,-0.015,0.164,0.400
'0:00.630',-0.199,0.120,0.320,0.040,-0.260,0.220,-0.750,0.249,1.171,0.309,-0.072,0.263,-0.015,0.163,0.399
'0:00.631',-0.204,0.112,0.317,0.046,-0.261,0.214,-0.749,0.249,1.171,0.310,-0.072,0.261,-0.018,0.157,0.400
'0:00.632',-0.203,0.109,0.312,0.047,-0.258,0.211,-0.746,0.248,1.169,0.309,-0.070,0.263,-0.019,0.155,0.397
'0:00.633',-0.201,0.107,0.309,0.047,-0.255,0.208,-0.745,0.249,1.170,0.309,-0.067,0.266,-0.018,0.155,0.394
'0:00.634',-0.196,0.110,0.306,0.043,-0.252,0.208,-0.743,0.249,1.170,0.306,-0.069,0.267,-0.018,0.158,0.392
'0:00.635',-0.200,0.112,0.312,0.043,-0.256,0.212,-0.750,0.248,1.167,0.306,-0.070,0.265,-0.018,0.158,0.394
'0:00.636',-0.205,0.106,0.312,0.050,-0.259,0.209,-0.757,0.248,1.158,0.310,-0.070,0.266,-0.021,0.149,0.394
'0:00.637',-0.210,0.102,0.313,0.054,-0.263,0.208,-0.759,0.249,1.150,0.314,-0.070,0.265,-0.024,0.141,0.397
'0:00.638',-0.212,0.097,0.309,0.058,-0.261,0.203,-0.752,0.249,1.155,0.315,-0.069,0.267,-0.022,0.141,0.395
'0:00.639',-0.210,0.093,0.303,0.059,-0.257,0.199,-0.739,0.252,1.166,0.312,-0.068,0.269,-0.021,0.148,0.392
'0:00.640',-0.214,0.088,0.303,0.063,-0.259,0.197,-0.737,0.251,1.169,0.310,-0.070,0.268,-0.018,0.150,0.393
'0:00.641',-0.207,0.096,0.304,0.056,-0.256,0.200,-0.737,0.248,1.167,0.310,-0.072,0.268,-0.015,0.153,0.393
'0:00.642',-0.205,0.101,0.306,0.052,-0.256,0.203,-0.736,0.249,1.169,0.309,-0.074,0.266,-0.016,0.157,0.395
'0:00.643',-0.205,0.102,0.307,0.052,-0.257,0.205,-0.736,0.248,1.168,0.307,-0.076,0.262,-0.015,0.157,0.397
'0:00.644',-0.208,0.100,0.309,0.054,-0.259,0.205,-0.735,0.249,1.169,0.310,-0.076,0.261,-0.015,0.156,0.401
'0:00.645',-0.209,0.097,0.306,0.056,-0.258,0.202,-0.735,0.248,1.171,0.311,-0.074,0.264,-0.015,0.156,0.400
'0:00.646',-0.203,0.104,0.307,0.049,-0.255,0.206,-0.724,0.246,1.179,0.307,-0.076,0.263,-0.013,0.167,0.398
'0:00.647',-0.197,0.108,0.305,0.044,-0.251,0.206,-0.723,0.245,1.185,0.302,-0.077,0.261,-0.011,0.178,0.396
'0:00.648',-0.198,0.109,0.307,0.044,-0.253,0.208,-0.734,0.243,1.181,0.301,-0.080,0.257,-0.012,0.170,0.397
'0:00.649',-0.202,0.112,0.314,0.045,-0.258,0.213,-0.745,0.242,1.168,0.306,-0.082,0.257,-0.015,0.161,0.401
'0:00.650',-0.197,0.117,0.314,0.040,-0.256,0.215,-0.750,0.242,1.163,0.308,-0.081,0.259,-0.014,0.162,0.401
'0:00.651',-0.201,0.111,0.312,0.045,-0.257,0.212,-0.747,0.244,1.162,0.311,-0.078,0.261,-0.015,0.160,0.403
'0:00.652',-0.203,0.107,0.310,0.048,-0.257,0.209,-0.745,0.245,1.161,0.310,-0.076,0.263,-0.017,0.157,0.399
'0:00.653',-0.202,0.106,0.308,0.048,-0.255,0.207,-0.743,0.247,1.161,0.311,-0.076,0.264,-0.017,0.155,0.395
'0:00.654',-0.196,0.109,0.306,0.043,-0.252,0.207,-0.741,0.247,1.162,0.309,-0.075,0.266,-0.016,0.157,0.393
'0:00.655',-0.194,0.115,0.309,0.040,-0.252,0.212,-0.746,0.245,1.159,0.308,-0.078,0.264,-0.017,0.158,0.395
'0:00.656',-0.199,0.111,0.310,0.043,-0.255,0.211,-0.754,0.246,1.151,0.312,-0.076,0.265,-0.019,0.151,0.397
'0:00.657',-0.204,0.108,0.312,0.048,-0.258,0.210,-0.754,0.248,1.145,0.316,-0.075,0.267,-0.022,0.145,0.400
'0:00.658',-0.206,0.104,0.311,0.051,-0.259,0.208,-0.749,0.246,1.149,0.315,-0.073,0.269,-0.021,0.147,0.398
'0:00.659',-0.205,0.099,0.305,0.053,-0.255,0.203,-0.737,0.247,1.159,0.310,-0.073,0.268,-0.018,0.153,0.395
'0:00.660',-0.209,0.095,0.304,0.057,-0.257,0.200,-0.727,0.249,1.163,0.310,-0.074,0.266,-0.018,0.155,0.397
'0:00.661',-0.205,0.101,0.306,0.052,-0.256,0.204,-0.732,0.246,1.165,0.308,-0.075,0.265,-0.017,0.158,0.394
'0:00.662',-0.205,0.104,0.309,0.051,-0.257,0.206,-0.736,0.245,1.163,0.308,-0.076,0.262,-0.017,0.156,0.396
'0:00.663',-0.206,0.106,0.313,0.050,-0.260,0.210,-0.735,0.246,1.163,0.310,-0.076,0.259,-0.017,0.156,0.397
'0:00.664',-0.208,0.105,0.314,0.051,-0.262,0.209,-0.738,0.247,1.164,0.312,-0.079,0.259,-0.017,0.156,0.401
'0:00.665',-0.208,0.104,0.312,0.052,-0.261,0.208,-0.736,0.246,1.167,0.312,-0.076,0.261,-0.015,0.161,0.401
'0:00.666',-0.205,0.107,0.313,0.049,-0.260,0.210,-0.728,0.246,1.175,0.310,-0.076,0.259,-0.011,0.170,0.400
'0:00.667',-0.201,0.109,0.309,0.045,-0.256,0.209,-0.724,0.244,1.181,0.307,-0.079,0.260,-0.009,0.174,0.398
'0:00.668',-0.198,0.113,0.310,0.043,-0.255,0.212,-0.730,0.244,1.179,0.306,-0.081,0.256,-0.011,0.169,0.400
'0:00.669',-0.197,0.118,0.316,0.040,-0.257,0.217,-0.742,0.245,1.170,0.310,-0.081,0.255,-0.016,0.165,0.404
'0:00.670',-0.193,0.125,0.318,0.034,-0.256,0.222,-0.746,0.244,1.165,0.311,-0.079,0.258,-0.017,0.166,0.403
'0:00.671',-0.197,0.118,0.316,0.040,-0.257,0.217,-0.746,0.246,1.162,0.312,-0.077,0.258,-0.018,0.157,0.404
'0:00.672',-0.195,0.116,0.311,0.040,-0.254,0.213,-0.744,0.248,1.163,0.314,-0.075,0.261,-0.017,0.156,0.402
'0:00.673',-0.194,0.115,0.309,0.040,-0.252,0.212,-0.743,0.249,1.163,0.314,-0.071,0.266,-0.017,0.154,0.398
'0:00.674',-0.191,0.117,0.308,0.037,-0.250,0.213,-0.745,0.247,1.162,0.312,-0.073,0.265,-0.017,0.151,0.395
'0:00.675',-0.192,0.119,0.311,0.036,-0.252,0.215,-0.750,0.247,1.159,0.310,-0.077,0.263,-0.018,0.152,0.398
'0:00.676',-0.195,0.115,0.309,0.040,-0.252,0.212,-0.758,0.248,1.151,0.314,-0.075,0.264,-0.020,0.144,0.401
'0:00.677',-0.196,0.114,0.310,0.042,-0.254,0.212,-0.759,0.248,1.145,0.318,-0.073,0.263,-0.021,0.140,0.404
'0:00.678',-0.200,0.110,0.309,0.044,-0.255,0.210,-0.750,0.248,1.149,0.317,-0.070,0.266,-0.021,0.141,0.402
'0:00.679',-0.199,0.105,0.305,0.046,-0.252,0.205,-0.736,0.247,1.160,0.314,-0.069,0.270,-0.018,0.147,0.398
'0:00.680',-0.201,0.102,0.304,0.049,-0.253,0.203,-0.730,0.247,1.165,0.312,-0.073,0.267,-0.017,0.152,0.401
'0:00.681',-0.199,0.108,0.307,0.045,-0.253,0.208,-0.734,0.245,1.166,0.311,-0.074,0.263,-0.017,0.155,0.399
'0:00.682',-0.198,0.111,0.309,0.043,-0.254,0.210,-0.733,0.244,1.167,0.311,-0.076,0.262,-0.017,0.156,0.400
'0:00.683',-0.198,0.112,0.310,0.043,-0.254,0.211,-0.732,0.242,1.165,0.310,-0.080,0.260,-0.016,0.156,0.401
'0:00.684',-0.203,0.108,0.311,0.047,-0.258,0.210,-0.733,0.243,1.165,0.310,-0.078,0.262,-0.015,0.155,0.405
'0:00.685',-0.205,0.105,0.310,0.050,-0.258,0.208,-0.728,0.245,1.169,0.309,-0.076,0.264,-0.015,0.157,0.405
'0:00.686',-0.201,0.110,0.311,0.046,-0.256,0.210,-0.723,0.242,1.175,0.305,-0.079,0.260,-0.012,0.164,0.402
'0:00.687',-0.200,0.110,0.311,0.045,-0.256,0.210,-0.721,0.240,1.179,0.300,-0.081,0.259,-0.009,0.167,0.399
'0:00.688',-0.203,0.108,0.312,0.047,-0.258,0.210,-0.728,0.239,1.176,0.300,-0.084,0.257,-0.011,0.162,0.400
'0:00.689',-0.202,0.113,0.316,0.044,-0.259,0.214,-0.741,0.239,1.167,0.305,-0.083,0.256,-0.012,0.158,0.405
'0:00.690',-0.197,0.121,0.319,0.037,-0.258,0.221,-0.746,0.240,1.163,0.306,-0.080,0.260,-0.012,0.158,0.404
'0:00.691',-0.201,0.115,0.316,0.043,-0.259,0.215,-0.744,0.242,1.163,0.309,-0.078,0.260,-0.013,0.155,0.406
'0:00.692',-0.202,0.111,0.312,0.046,-0.258,0.212,-0.744,0.240,1.160,0.308,-0.078,0.260,-0.013,0.153,0.404
'0:00.693',-0.202,0.108,0.310,0.046,-0.257,0.210,-0.746,0.239,1.159,0.307,-0.077,0.261,-0.014,0.153,0.401
'0:00.694',-0.200,0.111,0.311,0.044,-0.256,0.211,-0.745,0.239,1.159,0.304,-0.078,0.261,-0.013,0.153,0.398
'0:00.695',-0.199,0.113,0.312,0.043,-0.256,0.213,-0.749,0.239,1.155,0.304,-0.079,0.261,-0.015,0.150,0.399
'0:00.696',-0.204,0.108,0.312,0.048,-0.259,0.210,-0.754,0.240,1.149,0.309,-0.079,0.260,-0.019,0.140,0.399
'0:00.697',-0.209,0.105,0.316,0.052,-0.263,0.210,-0.754,0.241,1.141,0.313,-0.078,0.260,-0.020,0.135,0.402
'0:00.698',-0.208,0.102,0.310,0.053,-0.259,0.206,-0.747,0.242,1.145,0.311,-0.075,0.263,-0.020,0.139,0.400
'0:00.699',-0.207,0.097,0.304,0.055,-0.256,0.201,-0.734,0.241,1.153,0.307,-0.075,0.260,-0.018,0.141,0.397
'0:00.700',-0.210,0.093,0.304,0.059,-0.258,0.199,-0.729,0.240,1.159,0.305,-0.076,0.259,-0.016,0.143,0.398
'0:00.701',-0.204,0.102,0.306,0.051,-0.256,0.204,-0.730,0.240,1.161,0.303,-0.078,0.259,-0.015,0.151,0.396
'0:00.702',-0.203,0.103,0.307,0.050,-0.256,0.205,-0.730,0.240,1.162,0.305,-0.080,0.257,-0.017,0.155,0.397
'0:00.703',-0.207,0.104,0.311,0.051,-0.260,0.208,-0.729,0.241,1.164,0.306,-0.081,0.257,-0.018,0.158,0.398
'0:00.704',-0.210,0.103,0.314,0.053,-0.262,0.208,-0.727,0.245,1.166,0.312,-0.079,0.257,-0.018,0.155,0.401
'0:00.705',-0.210,0.102,0.313,0.054,-0.262,0.208,-0.725,0.246,1.171,0.314,-0.075,0.259,-0.018,0.158,0.398
'0:00.706',-0.206,0.110,0.317,0.049,-0.262,0.213,-0.717,0.246,1.183,0.313,-0.074,0.258,-0.015,0.169,0.394
'0:00.707',-0.197,0.118,0.316,0.039,-0.256,0.217,-0.711,0.249,1.193,0.312,-0.073,0.259,-0.014,0.181,0.389
'0:00.708',-0.193,0.129,0.323,0.032,-0.258,0.226,-0.718,0.253,1.192,0.314,-0.072,0.258,-0.018,0.187,0.386
'0:00.709',-0.190,0.140,0.330,0.025,-0.260,0.235,-0.728,0.256,1.187,0.321,-0.068,0.261,-0.021,0.190,0.388
'0:00.710',-0.186,0.148,0.336,0.019,-0.262,0.242,-0.732,0.257,1.184,0.323,-0.066,0.265,-0.019,0.192,0.388
'0:00.711',-0.194,0.143,0.338,0.025,-0.266,0.240,-0.731,0.258,1.183,0.327,-0.063,0.266,-0.021,0.188,0.388
'0:00.712',-0.194,0.144,0.339,0.025,-0.266,0.241,-0.729,0.258,1.183,0.330,-0.059,0.269,-0.022,0.190,0.385
'0:00.713',-0.191,0.148,0.340,0.021,-0.266,0.244,-0.725,0.262,1.185,0.331,-0.054,0.273,-0.021,0.195,0.380
'0:00.714',-0.186,0.156,0.343,0.015,-0.265,0.249,-0.721,0.263,1.189,0.330,-0.053,0.275,-0.021,0.201,0.374
'0:00.715',-0.188,0.161,0.349,0.013,-0.269,0.256,-0.721,0.264,1.188,0.332,-0.054,0.274,-0.024,0.199,0.372
'0:00.716',-0.193,0.160,0.353,0.016,-0.273,0.257,-0.725,0.269,1.185,0.338,-0.050,0.277,-0.026,0.197,0.371
'0:00.717',-0.196,0.165,0.361,0.015,-0.279,0.264,-0.727,0.271,1.185,0.344,-0.047,0.279,-0.029,0.199,0.370
'0:00.718',-0.197,0.163,0.359,0.017,-0.278,0.261,-0.718,0.271,1.185,0.345,-0.044,0.282,-0.028,0.203,0.368
'0:00.719',-0.197,0.159,0.356,0.019,-0.277,0.258,-0.708,0.271,1.196,0.344,-0.045,0.283,-0.025,0.208,0.364
'0:00.720',-0.200,0.157,0.356,0.021,-0.279,0.257,-0.704,0.270,1.202,0.345,-0.044,0.281,-0.025,0.212,0.363
'0:00.721',-0.195,0.165,0.360,0.015,-0.278,0.263,-0.708,0.268,1.202,0.344,-0.044,0.281,-0.024,0.220,0.362
'0:00.722',-0.192,0.172,0.364,0.010,-0.279,0.269,-0.708,0.267,1.205,0.343,-0.046,0.281,-0.023,0.224,0.364
'0:00.723',-0.189,0.175,0.364,0.007,-0.277,0.270,-0.705,0.267,1.205,0.344,-0.046,0.280,-0.022,0.226,0.366
'0:00.724',-0.193,0.172,0.364,0.010,-0.279,0.269,-0.705,0.269,1.206,0.343,-0.046,0.280,-0.023,0.221,0.370
'0:00.725',-0.191,0.172,0.363,0.009,-0.277,0.268,-0.700,0.270,1.211,0.343,-0.043,0.284,-0.022,0.223,0.368
'0:00.726',-0.184,0.181,0.366,0.002,-0.276,0.274,-0.689,0.269,1.222,0.339,-0.041,0.286,-0.019,0.237,0.364
'0:00.727',-0.179,0.188,0.368,-0.004,-0.274,0.278,-0.684,0.268,1.232,0.335,-0.041,0.286,-0.018,0.245,0.359
'0:00.728',-0.175,0.199,0.376,-0.012,-0.276,0.287,-0.689,0.271,1.232,0.335,-0.042,0.283,-0.022,0.247,0.357
'0:00.729',-0.174,0.208,0.383,-0.018,-0.279,0.296,-0.698,0.276,1.226,0.338,-0.038,0.285,-0.028,0.246,0.358
'0:00.730',-0.172,0.213,0.386,-0.021,-0.279,0.300,-0.703,0.275,1.219,0.339,-0.037,0.287,-0.029,0.245,0.358
'0:00.731',-0.174,0.209,0.384,-0.018,-0.280,0.297,-0.700,0.278,1.217,0.339,-0.035,0.288,-0.030,0.240,0.360
'0:00.732',-0.169,0.205,0.375,-0.018,-0.273,0.290,-0.696,0.281,1.218,0.338,-0.033,0.292,-0.030,0.235,0.358
'0:00.733',-0.167,0.203,0.369,-0.018,-0.269,0.286,-0.698,0.282,1.217,0.338,-0.034,0.294,-0.030,0.231,0.355
'0:00.734',-0.165,0.203,0.368,-0.019,-0.267,0.286,-0.698,0.282,1.218,0.333,-0.035,0.292,-0.030,0.229,0.352
'0:00.735',-0.165,0.200,0.364,-0.018,-0.265,0.282,-0.702,0.281,1.212,0.333,-0.038,0.288,-0.031,0.221,0.355
'0:00.736',-0.166,0.195,0.361,-0.015,-0.264,0.278,-0.710,0.283,1.205,0.335,-0.037,0.289,-0.035,0.210,0.355
'0:00.737',-0.169,0.196,0.365,-0.013,-0.267,0.281,-0.711,0.284,1.202,0.340,-0.036,0.291,-0.037,0.206,0.357
'0:00.738',-0.171,0.196,0.367,-0.013,-0.270,0.281,-0.705,0.283,1.202,0.344,-0.033,0.294,-0.035,0.212,0.355
'0:00.739',-0.169,0.198,0.367,-0.015,-0.269,0.283,-0.695,0.282,1.212,0.342,-0.032,0.295,-0.033,0.222,0.353
'0:00.740',-0.174,0.193,0.367,-0.009,-0.271,0.281,-0.690,0.282,1.218,0.341,-0.033,0.293,-0.030,0.223,0.355
'0:00.741',-0.173,0.198,0.371,-0.013,-0.273,0.285,-0.692,0.280,1.221,0.340,-0.034,0.292,-0.030,0.228,0.352
'0:00.742',-0.175,0.201,0.377,-0.013,-0.276,0.289,-0.694,0.279,1.222,0.338,-0.037,0.291,-0.029,0.229,0.356
'0:00.743',-0.177,0.202,0.380,-0.012,-0.279,0.290,-0.699,0.277,1.222,0.337,-0.038,0.288,-0.029,0.231,0.360
'0:00.744',-0.181,0.200,0.382,-0.009,-0.281,0.291,-0.705,0.276,1.222,0.340,-0.035,0.289,-0.031,0.232,0.361
'0:00.745',-0.181,0.198,0.380,-0.009,-0.281,0.288,-0.702,0.277,1.227,0.339,-0.033,0.294,-0.029,0.235,0.360
'0:00.746',-0.177,0.205,0.384,-0.014,-0.281,0.294,-0.696,0.274,1.237,0.337,-0.032,0.294,-0.025,0.249,0.359
'0:00.747',-0.176,0.215,0.393,-0.019,-0.284,0.304,-0.697,0.267,1.241,0.338,-0.030,0.296,-0.022,0.262,0.358
'0:00.748',-0.179,0.226,0.405,-0.023,-0.292,0.316,-0.715,0.257,1.234,0.340,-0.033,0.295,-0.021,0.266,0.362
'0:00.749',-0.177,0.237,0.414,-0.029,-0.296,0.326,-0.740,0.246,1.220,0.348,-0.030,0.297,-0.021,0.271,0.371
'0:00.750',-0.171,0.246,0.418,-0.037,-0.295,0.333,-0.758,0.238,1.210,0.351,-0.029,0.303,-0.018,0.275,0.374
'0:00.751',-0.174,0.239,0.413,-0.033,-0.294,0.327,-0.763,0.235,1.206,0.351,-0.028,0.306,-0.018,0.268,0.378
'0:00.752',-0.174,0.234,0.408,-0.030,-0.291,0.322,-0.759,0.238,1.206,0.348,-0.025,0.309,-0.019,0.266,0.377
'0:00.753',-0.171,0.233,0.404,-0.032,-0.287,0.319,-0.759,0.240,1.208,0.346,-0.022,0.313,-0.020,0.263,0.377
'0:00.754',-0.162,0.239,0.402,-0.039,-0.282,0.321,-0.759,0.241,1.208,0.340,-0.020,0.316,-0.021,0.265,0.373
'0:00.755',-0.160,0.247,0.407,-0.044,-0.283,0.328,-0.764,0.244,1.208,0.337,-0.019,0.317,-0.022,0.269,0.373
'0:00.756',-0.163,0.242,0.405,-0.040,-0.283,0.324,-0.770,0.249,1.202,0.339,-0.017,0.319,-0.025,0.260,0.375
'0:00.757',-0.166,0.234,0.400,-0.035,-0.283,0.318,-0.772,0.248,1.192,0.339,-0.018,0.316,-0.027,0.248,0.379
'0:00.758',-0.165,0.228,0.393,-0.032,-0.279,0.311,-0.767,0.246,1.192,0.338,-0.015,0.319,-0.025,0.251,0.380
'0:00.759',-0.164,0.224,0.389,-0.030,-0.277,0.306,-0.755,0.246,1.198,0.336,-0.016,0.319,-0.022,0.255,0.376
'0:00.760',-0.166,0.222,0.388,-0.028,-0.277,0.305,-0.752,0.243,1.202,0.335,-0.016,0.318,-0.019,0.257,0.374
'0:00.761',-0.159,0.232,0.391,-0.036,-0.275,0.311,-0.755,0.242,1.203,0.332,-0.016,0.320,-0.018,0.266,0.373
'0:00.762',-0.155,0.243,0.399,-0.044,-0.277,0.321,-0.755,0.241,1.204,0.331,-0.015,0.321,-0.015,0.273,0.377
'0:00.763',-0.151,0.254,0.406,-0.051,-0.279,0.330,-0.755,0.242,1.209,0.330,-0.012,0.326,-0.015,0.282,0.377
'0:00.764',-0.150,0.257,0.406,-0.053,-0.279,0.332,-0.754,0.246,1.213,0.329,-0.010,0.330,-0.017,0.287,0.376
'0:00.765',-0.149,0.255,0.404,-0.053,-0.276,0.329,-0.748,0.249,1.216,0.328,-0.005,0.332,-0.015,0.289,0.373
'0:00.766',-0.143,0.256,0.399,-0.056,-0.272,0.328,-0.742,0.246,1.219,0.325,-0.009,0.329,-0.010,0.293,0.376
'0:00.767',-0.137,0.254,0.391,-0.059,-0.264,0.323,-0.743,0.240,1.220,0.319,-0.014,0.328,-0.004,0.293,0.381
'0:00.768',-0.133,0.253,0.386,-0.060,-0.259,0.320,-0.753,0.242,1.216,0.317,-0.018,0.324,-0.004,0.287,0.386
'0:00.769',-0.130,0.253,0.383,-0.061,-0.257,0.318,-0.767,0.241,1.207,0.319,-0.018,0.324,-0.006,0.277,0.393
'0:00.770',-0.131,0.252,0.382,-0.061,-0.256,0.317,-0.772,0.238,1.197,0.318,-0.018,0.325,-0.006,0.270,0.394
'0:00.771',-0.137,0.240,0.377,-0.052,-0.257,0.309,-0.772,0.237,1.192,0.320,-0.018,0.323,-0.006,0.262,0.396
'0:00.772',-0.137,0.234,0.371,-0.049,-0.254,0.303,-0.774,0.234,1.190,0.319,-0.016,0.325,-0.005,0.258,0.396
'0:00.773',-0.136,0.230,0.366,-0.047,-0.251,0.298,-0.773,0.232,1.187,0.317,-0.018,0.326,-0.005,0.254,0.395
'0:00.774',-0.134,0.232,0.366,-0.049,-0.250,0.299,-0.774,0.230,1.187,0.314,-0.018,0.328,-0.004,0.256,0.393
'0:00.775',-0.132,0.234,0.366,-0.051,-0.249,0.301,-0.778,0.233,1.187,0.310,-0.018,0.328,-0.005,0.256,0.394
'0:00.776',-0.131,0.228,0.357,-0.049,-0.244,0.292,-0.785,0.236,1.179,0.307,-0.013,0.333,-0.007,0.242,0.398
'0:00.777',-0.135,0.221,0.355,-0.043,-0.245,0.288,-0.784,0.238,1.173,0.310,-0.012,0.335,-0.009,0.231,0.401
'0:00.778',-0.136,0.214,0.350,-0.040,-0.243,0.282,-0.773,0.239,1.177,0.309,-0.009,0.339,-0.009,0.229,0.397
'0:00.779',-0.134,0.207,0.340,-0.037,-0.236,0.274,-0.762,0.238,1.185,0.302,-0.009,0.340,-0.005,0.232,0.394
'0:00.780',-0.138,0.195,0.333,-0.029,-0.235,0.264,-0.756,0.238,1.188,0.301,-0.014,0.338,-0.003,0.226,0.397
'0:00.781',-0.137,0.191,0.328,-0.027,-0.233,0.260,-0.755,0.237,1.188,0.298,-0.019,0.334,-0.002,0.219,0.396
'0:00.782',-0.143,0.184,0.327,-0.021,-0.235,0.256,-0.756,0.237,1.187,0.297,-0.025,0.327,-0.004,0.212,0.397
'0:00.783',-0.149,0.180,0.330,-0.016,-0.239,0.255,-0.758,0.237,1.183,0.299,-0.032,0.318,-0.006,0.207,0.401
'0:00.784',-0.157,0.171,0.328,-0.007,-0.242,0.249,-0.756,0.237,1.181,0.302,-0.038,0.311,-0.005,0.201,0.406
'0:00.785',-0.162,0.159,0.321,0.002,-0.241,0.240,-0.748,0.242,1.185,0.305,-0.041,0.308,-0.007,0.194,0.402
'0:00.786',-0.164,0.154,0.319,0.004,-0.241,0.237,-0.739,0.242,1.192,0.304,-0.045,0.301,-0.007,0.196,0.398
'0:00.787',-0.167,0.151,0.319,0.008,-0.243,0.235,-0.738,0.235,1.193,0.301,-0.052,0.296,-0.003,0.197,0.399
'0:00.788',-0.170,0.148,0.320,0.011,-0.245,0.234,-0.746,0.234,1.185,0.302,-0.057,0.289,-0.005,0.190,0.401
'0:00.789',-0.173,0.142,0.316,0.015,-0.245,0.230,-0.757,0.236,1.175,0.303,-0.061,0.285,-0.009,0.174,0.401
'0:00.790',-0.172,0.141,0.314,0.015,-0.243,0.228,-0.759,0.238,1.171,0.304,-0.062,0.284,-0.011,0.165,0.398
'0:00.791',-0.178,0.131,0.309,0.024,-0.244,0.221,-0.754,0.242,1.169,0.307,-0.063,0.283,-0.011,0.161,0.399
'0:00.792',-0.183,0.122,0.306,0.030,-0.245,0.214,-0.753,0.240,1.166,0.308,-0.066,0.282,-0.011,0.154,0.398
'0:00.793',-0.189,0.116,0.305,0.036,-0.247,0.211,-0.753,0.239,1.163,0.309,-0.067,0.279,-0.012,0.147,0.397
'0:00.794',-0.187,0.117,0.304,0.035,-0.246,0.211,-0.753,0.235,1.159,0.308,-0.073,0.276,-0.011,0.144,0.396
'0:00.795',-0.184,0.122,0.306,0.031,-0.245,0.214,-0.756,0.234,1.154,0.308,-0.077,0.270,-0.011,0.140,0.399
'0:00.796',-0.189,0.115,0.305,0.037,-0.247,0.210,-0.764,0.235,1.145,0.311,-0.077,0.269,-0.014,0.128,0.402
'0:00.797',-0.198,0.108,0.306,0.044,-0.252,0.207,-0.766,0.234,1.137,0.315,-0.080,0.266,-0.017,0.119,0.406
'0:00.798',-0.197,0.103,0.301,0.046,-0.249,0.203,-0.758,0.234,1.140,0.315,-0.079,0.268,-0.014,0.123,0.404
'0:00.799',-0.198,0.097,0.295,0.051,-0.246,0.196,-0.747,0.236,1.147,0.310,-0.079,0.267,-0.013,0.127,0.401
'0:00.800',-0.202,0.090,0.292,0.056,-0.247,0.192,-0.740,0.237,1.153,0.308,-0.082,0.261,-0.013,0.129,0.401
'0:00.801',-0.196,0.095,0.291,0.051,-0.243,0.194,-0.741,0.235,1.155,0.306,-0.084,0.259,-0.013,0.133,0.398
'0:00.802',-0.195,0.096,0.291,0.050,-0.243,0.194,-0.743,0.234,1.155,0.305,-0.085,0.256,-0.012,0.133,0.401
'0:00.803',-0.197,0.096,0.293,0.051,-0.245,0.195,-0.743,0.234,1.155,0.304,-0.087,0.254,-0.011,0.131,0.405
'0:00.804',-0.202,0.091,0.293,0.056,-0.247,0.192,-0.746,0.234,1.152,0.305,-0.089,0.251,-0.013,0.128,0.408
'0:00.805',-0.201,0.085,0.286,0.058,-0.243,0.186,-0.744,0.235,1.155,0.303,-0.087,0.253,-0.011,0.129,0.408
'0:00.806',-0.195,0.088,0.284,0.053,-0.239,0.186,-0.732,0.234,1.161,0.299,-0.087,0.251,-0.006,0.137,0.409
'0:00.807',-0.189,0.091,0.281,0.049,-0.235,0.186,-0.729,0.233,1.167,0.295,-0.089,0.249,-0.004,0.141,0.406
'0:00.808',-0.189,0.092,0.281,0.049,-0.235,0.188,-0.736,0.233,1.163,0.296,-0.092,0.246,-0.006,0.136,0.407
'0:00.809',-0.189,0.096,0.285,0.046,-0.237,0.191,-0.747,0.234,1.153,0.301,-0.092,0.245,-0.009,0.128,0.410
'0:00.810',-0.184,0.101,0.285,0.042,-0.235,0.194,-0.751,0.234,1.148,0.303,-0.090,0.248,-0.008,0.123,0.408
'0:00.811',-0.189,0.093,0.282,0.048,-0.236,0.189,-0.750,0.233,1.146,0.304,-0.089,0.248,-0.009,0.116,0.409
'0:00.812',-0.188,0.088,0.277,0.050,-0.233,0.183,-0.749,0.234,1.146,0.303,-0.088,0.250,-0.011,0.114,0.407
'0:00.813',-0.188,0.086,0.274,0.051,-0.231,0.180,-0.749,0.235,1.146,0.303,-0.087,0.254,-0.011,0.113,0.404
'0:00.814',-0.184,0.087,0.273,0.049,-0.229,0.180,-0.748,0.236,1.145,0.301,-0.088,0.253,-0.010,0.112,0.402
'0:00.815',-0.187,0.088,0.276,0.049,-0.232,0.182,-0.749,0.234,1.140,0.300,-0.090,0.250,-0.010,0.109,0.403
'0:00.816',-0.194,0.082,0.276,0.056,-0.235,0.179,-0.756,0.234,1.133,0.304,-0.090,0.248,-0.013,0.099,0.405
'0:00.817',-0.200,0.076,0.277,0.062,-0.239,0.177,-0.756,0.236,1.129,0.308,-0.088,0.249,-0.015,0.089,0.407
'0:00.818',-0.199,0.073,0.273,0.063,-0.236,0.173,-0.749,0.237,1.132,0.309,-0.086,0.254,-0.013,0.092,0.405
'0:00.819',-0.194,0.072,0.266,0.060,-0.230,0.170,-0.737,0.237,1.141,0.303,-0.086,0.253,-0.011,0.102,0.402
'0:00.820',-0.196,0.068,0.264,0.064,-0.230,0.166,-0.731,0.239,1.145,0.301,-0.088,0.251,-0.010,0.107,0.404
'0:00.821',-0.193,0.070,0.264,0.061,-0.229,0.167,-0.734,0.237,1.143,0.298,-0.092,0.249,-0.011,0.108,0.403
'0:00.822',-0.198,0.072,0.270,0.063,-0.234,0.172,-0.733,0.236,1.146,0.300,-0.095,0.246,-0.011,0.107,0.403
'0:00.823',-0.203,0.070,0.274,0.067,-0.238,0.172,-0.732,0.237,1.147,0.303,-0.097,0.243,-0.010,0.105,0.406
'0:00.824',-0.205,0.067,0.272,0.070,-0.238,0.170,-0.732,0.238,1.148,0.303,-0.099,0.243,-0.012,0.106,0.409
'0:00.825',-0.204,0.064,0.269,0.070,-0.237,0.167,-0.726,0.240,1.153,0.305,-0.096,0.246,-0.011,0.113,0.406
'0:00.826',-0.203,0.067,0.271,0.068,-0.237,0.169,-0.715,0.239,1.159,0.302,-0.098,0.244,-0.009,0.118,0.406
'0:00.827',-0.200,0.070,0.271,0.065,-0.235,0.171,-0.713,0.239,1.169,0.300,-0.098,0.244,-0.008,0.122,0.402
'0:00.828',-0.199,0.072,0.272,0.064,-0.236,0.172,-0.722,0.238,1.165,0.300,-0.100,0.241,-0.009,0.123,0.404
'0:00.829',-0.199,0.074,0.274,0.062,-0.236,0.174,-0.735,0.238,1.155,0.304,-0.103,0.238,-0.013,0.117,0.408
'0:00.830',-0.197,0.077,0.275,0.059,-0.236,0.176,-0.740,0.238,1.151,0.307,-0.102,0.239,-0.013,0.113,0.407
'0:00.831',-0.202,0.073,0.275,0.065,-0.239,0.174,-0.737,0.240,1.151,0.311,-0.099,0.239,-0.015,0.108,0.408
'0:00.832',-0.200,0.070,0.272,0.065,-0.236,0.171,-0.736,0.242,1.151,0.311,-0.097,0.242,-0.015,0.108,0.404
'0:00.833',-0.197,0.070,0.268,0.064,-0.233,0.170,-0.737,0.243,1.150,0.311,-0.096,0.245,-0.013,0.108,0.402
'0:00.834',-0.192,0.075,0.268,0.058,-0.231,0.172,-0.737,0.242,1.152,0.309,-0.096,0.244,-0.013,0.109,0.401
'0:00.835',-0.191,0.079,0.271,0.056,-0.231,0.175,-0.741,0.241,1.150,0.307,-0.098,0.241,-0.013,0.107,0.401
'0:00.836',-0.197,0.074,0.272,0.061,-0.234,0.173,-0.746,0.244,1.141,0.310,-0.099,0.242,-0.017,0.099,0.403
'0:00.837',-0.204,0.069,0.273,0.068,-0.238,0.171,-0.746,0.245,1.133,0.314,-0.101,0.241,-0.019,0.095,0.406
'0:00.838',-0.203,0.065,0.269,0.069,-0.236,0.167,-0.741,0.245,1.136,0.312,-0.100,0.243,-0.019,0.095,0.403
'0:00.839',-0.204,0.061,0.266,0.072,-0.235,0.164,-0.729,0.244,1.145,0.307,-0.099,0.243,-0.017,0.097,0.399
'0:00.840',-0.207,0.057,0.264,0.075,-0.235,0.161,-0.724,0.245,1.151,0.308,-0.100,0.241,-0.017,0.102,0.401
'0:00.841',-0.201,0.065,0.266,0.068,-0.234,0.166,-0.725,0.245,1.153,0.307,-0.101,0.240,-0.017,0.108,0.399
'0:00.842',-0.201,0.068,0.269,0.067,-0.235,0.168,-0.723,0.244,1.153,0.307,-0.103,0.237,-0.017,0.107,0.400
'0:00.843',-0.201,0.069,0.270,0.066,-0.235,0.170,-0.722,0.246,1.153,0.309,-0.102,0.235,-0.018,0.108,0.403
'0:00.844',-0.208,0.065,0.273,0.072,-0.241,0.169,-0.721,0.247,1.153,0.311,-0.104,0.234,-0.017,0.106,0.406
'0:00.845',-0.210,0.059,0.271,0.075,-0.241,0.166,-0.717,0.244,1.155,0.311,-0.104,0.236,-0.015,0.104,0.405
'0:00.846',-0.208,0.064,0.272,0.072,-0.240,0.168,-0.707,0.242,1.163,0.306,-0.105,0.235,-0.012,0.112,0.403
'0:00.847',-0.204,0.066,0.271,0.069,-0.237,0.169,-0.704,0.242,1.171,0.301,-0.106,0.233,-0.011,0.119,0.400
'0:00.848',-0.202,0.070,0.272,0.067,-0.237,0.171,-0.711,0.243,1.169,0.303,-0.109,0.230,-0.013,0.117,0.402
'0:00.849',-0.203,0.074,0.278,0.065,-0.241,0.176,-0.724,0.244,1.160,0.308,-0.108,0.232,-0.016,0.116,0.406
'0:00.850',-0.201,0.081,0.281,0.060,-0.241,0.181,-0.730,0.244,1.153,0.309,-0.105,0.236,-0.017,0.115,0.405
'0:00.851',-0.206,0.074,0.281,0.066,-0.243,0.177,-0.726,0.246,1.151,0.310,-0.104,0.236,-0.018,0.107,0.406
'0:00.852',-0.208,0.069,0.278,0.070,-0.243,0.173,-0.724,0.247,1.149,0.309,-0.102,0.237,-0.018,0.105,0.404
'0:00.853',-0.208,0.067,0.275,0.071,-0.242,0.171,-0.723,0.247,1.149,0.309,-0.098,0.241,-0.017,0.103,0.402
'0:00.854',-0.205,0.071,0.277,0.067,-0.241,0.174,-0.724,0.248,1.147,0.307,-0.098,0.243,-0.015,0.103,0.398
'0:00.855',-0.203,0.075,0.280,0.064,-0.242,0.178,-0.728,0.247,1.146,0.307,-0.099,0.242,-0.018,0.104,0.400
'0:00.856',-0.209,0.070,0.279,0.070,-0.244,0.174,-0.736,0.248,1.140,0.311,-0.097,0.242,-0.020,0.096,0.400
'0:00.857',-0.215,0.065,0.281,0.075,-0.248,0.173,-0.740,0.249,1.133,0.314,-0.096,0.241,-0.021,0.088,0.403
'0:00.858',-0.214,0.060,0.276,0.077,-0.245,0.169,-0.733,0.248,1.137,0.312,-0.094,0.244,-0.020,0.091,0.401
'0:00.859',-0.214,0.056,0.270,0.079,-0.242,0.163,-0.718,0.248,1.146,0.306,-0.095,0.244,-0.018,0.096,0.398
'0:00.860',-0.219,0.052,0.271,0.084,-0.245,0.162,-0.712,0.247,1.152,0.304,-0.098,0.242,-0.018,0.099,0.402
'0:00.861',-0.214,0.059,0.273,0.078,-0.244,0.166,-0.717,0.246,1.153,0.301,-0.101,0.239,-0.017,0.102,0.400
'0:00.862',-0.212,0.061,0.274,0.075,-0.243,0.168,-0.720,0.246,1.153,0.302,-0.102,0.237,-0.017,0.101,0.401
'0:00.863',-0.212,0.064,0.277,0.074,-0.245,0.171,-0.721,0.244,1.155,0.302,-0.104,0.234,-0.017,0.104,0.403
'0:00.864',-0.218,0.058,0.277,0.080,-0.247,0.168,-0.723,0.244,1.153,0.305,-0.106,0.233,-0.016,0.102,0.406
'0:00.865',-0.220,0.054,0.274,0.084,-0.247,0.164,-0.718,0.245,1.156,0.305,-0.104,0.234,-0.015,0.104,0.406
'0:00.866',-0.213,0.060,0.274,0.077,-0.243,0.167,-0.709,0.245,1.165,0.302,-0.106,0.234,-0.013,0.113,0.403
'0:00.867',-0.206,0.064,0.271,0.071,-0.238,0.168,-0.710,0.245,1.171,0.297,-0.105,0.233,-0.013,0.115,0.399
'0:00.868',-0.205,0.067,0.273,0.069,-0.239,0.171,-0.721,0.245,1.169,0.295,-0.107,0.230,-0.014,0.113,0.401
'0:00.869',-0.205,0.071,0.277,0.067,-0.241,0.174,-0.733,0.245,1.161,0.300,-0.111,0.230,-0.015,0.108,0.405
'0:00.870',-0.202,0.077,0.280,0.062,-0.241,0.179,-0.734,0.245,1.157,0.301,-0.108,0.234,-0.015,0.105,0.403
'0:00.871',-0.207,0.071,0.279,0.068,-0.243,0.175,-0.731,0.248,1.156,0.304,-0.104,0.237,-0.017,0.102,0.403
'0:00.872',-0.205,0.068,0.273,0.069,-0.239,0.171,-0.732,0.247,1.156,0.305,-0.101,0.239,-0.018,0.101,0.400
'0:00.873',-0.203,0.066,0.270,0.069,-0.236,0.168,-0.736,0.247,1.153,0.303,-0.099,0.240,-0.017,0.100,0.396
'0:00.874',-0.201,0.069,0.271,0.066,-0.236,0.170,-0.736,0.246,1.155,0.300,-0.099,0.240,-0.018,0.102,0.395
'0:00.875',-0.204,0.067,0.272,0.069,-0.238,0.170,-0.734,0.245,1.153,0.299,-0.101,0.235,-0.019,0.099,0.397
'0:00.876',-0.209,0.061,0.271,0.074,-0.240,0.167,-0.741,0.246,1.145,0.302,-0.099,0.236,-0.024,0.087,0.397
'0:00.877',-0.211,0.059,0.271,0.076,-0.241,0.165,-0.743,0.248,1.142,0.303,-0.099,0.237,-0.026,0.083,0.399
'0:00.878',-0.210,0.053,0.265,0.079,-0.237,0.159,-0.734,0.252,1.148,0.302,-0.098,0.240,-0.025,0.082,0.398
'0:00.879',-0.208,0.049,0.258,0.080,-0.233,0.153,-0.717,0.256,1.158,0.297,-0.099,0.238,-0.024,0.086,0.394
'0:00.880',-0.209,0.042,0.252,0.084,-0.231,0.147,-0.707,0.263,1.165,0.295,-0.103,0.234,-0.022,0.085,0.393
'0:00.881',-0.208,0.038,0.247,0.085,-0.228,0.143,-0.702,0.271,1.169,0.295,-0.110,0.229,-0.023,0.080,0.392
'0:00.882',-0.210,0.032,0.242,0.089,-0.227,0.138,-0.693,0.279,1.171,0.296,-0.116,0.221,-0.022,0.072,0.394
'0:00.883',-0.214,0.022,0.237,0.096,-0.226,0.130,-0.683,0.289,1.175,0.298,-0.126,0.211,-0.022,0.063,0.395
'0:00.884',-0.218,0.003,0.222,0.107,-0.221,0.113,-0.663,0.309,1.181,0.298,-0.136,0.201,-0.026,0.046,0.394
'0:00.885',-0.220,-0.026,0.194,0.123,-0.207,0.084,-0.630,0.341,1.192,0.296,-0.151,0.185,-0.029,0.023,0.386
'0:00.886',-0.222,-0.060,0.162,0.141,-0.192,0.051,-0.589,0.379,1.211,0.290,-0.176,0.163,-0.033,-0.004,0.379
'0:00.887',-0.218,-0.099,0.120,0.159,-0.170,0.011,-0.543,0.430,1.236,0.280,-0.201,0.141,-0.041,-0.035,0.366
'0:00.888',-0.217,-0.139,0.079,0.178,-0.149,-0.029,-0.503,0.491,1.254,0.278,-0.229,0.114,-0.051,-0.081,0.357
'0:00.889',-0.217,-0.175,0.042,0.196,-0.130,-0.066,-0.474,0.542,1.264,0.279,-0.248,0.095,-0.061,-0.124,0.350
'0:00.890',-0.213,-0.208,0.006,0.210,-0.110,-0.101,-0.439,0.588,1.278,0.276,-0.271,0.074,-0.069,-0.164,0.340
'0:00.891',-0.219,-0.261,-0.041,0.239,-0.089,-0.150,-0.388,0.648,1.294,0.276,-0.300,0.049,-0.076,-0.213,0.332
'0:00.892',-0.221,-0.309,-0.088,0.265,-0.067,-0.199,-0.330,0.715,1.316,0.277,-0.330,0.024,-0.081,-0.261,0.317
'0:00.893',-0.218,-0.347,-0.128,0.283,-0.045,-0.237,-0.278,0.775,1.337,0.275,-0.357,0.003,-0.084,-0.297,0.302
'0:00.894',-0.208,-0.365,-0.157,0.286,-0.026,-0.261,-0.244,0.823,1.357,0.269,-0.371,-0.011,-0.086,-0.316,0.287
'0:00.895',-0.205,-0.368,-0.163,0.287,-0.021,-0.265,-0.227,0.850,1.367,0.271,-0.382,-0.019,-0.086,-0.324,0.279
'0:00.896',-0.207,-0.354,-0.147,0.281,-0.030,-0.251,-0.228,0.858,1.363,0.279,-0.383,-0.016,-0.083,-0.317,0.273
'0:00.897',-0.209,-0.328,-0.118,0.269,-0.045,-0.223,-0.225,0.866,1.372,0.289,-0.373,-0.007,-0.084,-0.297,0.262
'0:00.898',-0.204,-0.296,-0.091,0.251,-0.057,-0.194,-0.216,0.874,1.393,0.294,-0.358,0.009,-0.083,-0.264,0.240
'0:00.899',-0.190,-0.248,-0.058,0.219,-0.066,-0.153,-0.220,0.874,1.425,0.290,-0.330,0.036,-0.083,-0.212,0.216
'0:00.900',-0.180,-0.191,-0.010,0.185,-0.086,-0.100,-0.257,0.838,1.432,0.288,-0.293,0.070,-0.075,-0.157,0.211
'0:00.901',-0.164,-0.103,0.060,0.133,-0.112,-0.021,-0.312,0.790,1.430,0.289,-0.251,0.111,-0.067,-0.082,0.203
'0:00.902',-0.141,-0.018,0.124,0.079,-0.133,0.053,-0.371,0.751,1.440,0.285,-0.196,0.160,-0.067,-0.007,0.198
'0:00.903',-0.121,0.054,0.175,0.033,-0.148,0.115,-0.416,0.727,1.458,0.278,-0.138,0.209,-0.069,0.053,0.192
'0:00.904',-0.105,0.102,0.208,0.001,-0.157,0.155,-0.424,0.763,1.522,0.273,-0.074,0.257,-0.093,0.097,0.164
'0:00.905',-0.083,0.154,0.237,-0.035,-0.160,0.196,-0.456,0.751,1.547,0.262,-0.003,0.314,-0.102,0.143,0.152
'0:00.906',-0.058,0.226,0.283,-0.084,-0.171,0.255,-0.480,0.723,1.562,0.254,0.062,0.369,-0.100,0.210,0.141
'0:00.907',-0.035,0.288,0.323,-0.127,-0.179,0.306,-0.504,0.704,1.590,0.246,0.128,0.421,-0.108,0.269,0.121
'0:00.908',-0.021,0.355,0.376,-0.168,-0.198,0.365,-0.544,0.665,1.596,0.245,0.194,0.468,-0.120,0.321,0.106
'0:00.909',-0.004,0.437,0.441,-0.216,-0.222,0.439,-0.586,0.629,1.611,0.251,0.280,0.532,-0.137,0.388,0.083
'0:00.910',0.024,0.531,0.507,-0.278,-0.241,0.519,-0.668,0.551,1.621,0.248,0.386,0.614,-0.151,0.464,0.069
'0:00.911',0.042,0.628,0.588,-0.335,-0.273,0.609,-0.756,0.454,1.623,0.247,0.496,0.699,-0.164,0.551,0.057
'0:00.912',0.054,0.750,0.696,-0.403,-0.321,0.724,-0.882,0.291,1.583,0.250,0.607,0.791,-0.157,0.664,0.054
'0:00.913',0.061,0.887,0.826,-0.474,-0.383,0.857,-1.026,0.098,1.516,0.259,0.706,0.878,-0.139,0.794,0.065
'0:00.914',0.079,1.042,0.963,-0.560,-0.443,1.002,-1.167,-0.087,1.471,0.262,0.831,0.980,-0.138,0.932,0.063
'0:00.915',0.101,1.166,1.065,-0.633,-0.482,1.116,-1.296,-0.239,1.462,0.258,0.962,1.078,-0.164,1.038,0.053
'0:00.916',0.099,1.274,1.175,-0.686,-0.538,1.225,-1.372,-0.345,1.460,0.270,1.073,1.159,-0.194,1.136,0.025
'0:00.917',0.071,1.398,1.327,-0.735,-0.628,1.363,-1.425,-0.465,1.429,0.297,1.159,1.222,-0.206,1.253,-0.010
'0:00.918',0.052,1.516,1.462,-0.784,-0.705,1.490,-1.480,-0.597,1.385,0.320,1.235,1.282,-0.204,1.375,-0.030
'0:00.919',0.049,1.648,1.600,-0.848,-0.775,1.625,-1.546,-0.711,1.369,0.331,1.331,1.357,-0.207,1.510,-0.051
'0:00.920',0.046,1.786,1.740,-0.915,-0.847,1.763,-1.617,-0.790,1.402,0.339,1.426,1.428,-0.234,1.641,-0.083
'0:00.921',0.058,1.919,1.861,-0.989,-0.901,1.891,-1.706,-0.862,1.446,0.342,1.524,1.496,-0.272,1.758,-0.122
'0:00.922',0.069,2.023,1.954,-1.046,-0.942,1.989,-1.780,-0.925,1.478,0.344,1.613,1.558,-0.304,1.849,-0.151
'0:00.923',0.080,2.122,2.042,-1.101,-0.981,2.083,-1.835,-0.965,1.522,0.345,1.684,1.611,-0.338,1.935,-0.176
'0:00.924',0.091,2.174,2.082,-1.133,-0.995,2.127,-1.881,-0.993,1.558,0.343,1.751,1.656,-0.369,1.980,-0.189
'0:00.925',0.100,2.173,2.072,-1.137,-0.986,2.123,-1.899,-1.017,1.565,0.339,1.802,1.692,-0.388,1.990,-0.188
'0:00.926',0.095,2.108,2.014,-1.101,-0.959,2.061,-1.875,-1.008,1.567,0.337,1.804,1.688,-0.404,1.944,-0.178
'0:00.927',0.086,1.942,1.856,-1.014,-0.885,1.899,-1.789,-0.926,1.595,0.332,1.768,1.644,-0.434,1.808,-0.166
'0:00.928',0.068,1.769,1.702,-0.918,-0.817,1.736,-1.705,-0.822,1.609,0.336,1.700,1.575,-0.453,1.654,-0.135
'0:00.929',0.038,1.627,1.588,-0.833,-0.774,1.608,-1.644,-0.762,1.536,0.350,1.591,1.492,-0.411,1.528,-0.072
'0:00.930',0.009,1.502,1.492,-0.755,-0.742,1.497,-1.587,-0.743,1.381,0.363,1.445,1.403,-0.304,1.419,0.020
'0:00.931',-0.036,1.377,1.414,-0.670,-0.725,1.396,-1.565,-0.784,1.123,0.381,1.250,1.295,-0.124,1.318,0.165
'0:00.932',-0.083,1.287,1.370,-0.602,-0.727,1.329,-1.558,-0.850,0.848,0.403,1.033,1.179,0.067,1.250,0.308
'0:00.933',-0.140,1.190,1.329,-0.524,-0.734,1.260,-1.527,-0.902,0.551,0.425,0.790,1.046,0.283,1.172,0.462
'0:00.934',-0.187,1.080,1.268,-0.446,-0.728,1.174,-1.494,-0.948,0.275,0.442,0.548,0.915,0.496,1.081,0.617
'0:00.935',-0.219,0.991,1.210,-0.386,-0.715,1.101,-1.468,-0.946,0.177,0.457,0.389,0.809,0.560,1.003,0.688
'0:00.936',-0.242,0.933,1.177,-0.345,-0.710,1.055,-1.444,-0.919,0.153,0.473,0.282,0.731,0.564,0.949,0.713
'0:00.937',-0.267,0.886,1.153,-0.309,-0.710,1.020,-1.414,-0.891,0.126,0.494,0.181,0.659,0.577,0.905,0.737
'0:00.938',-0.289,0.825,1.114,-0.268,-0.702,0.970,-1.369,-0.864,0.129,0.517,0.100,0.589,0.560,0.861,0.743
'0:00.939',-0.304,0.767,1.072,-0.232,-0.688,0.920,-1.317,-0.819,0.165,0.530,0.038,0.527,0.528,0.825,0.737
'0:00.940',-0.318,0.692,1.010,-0.187,-0.664,0.851,-1.252,-0.748,0.226,0.535,-0.005,0.475,0.482,0.760,0.721
'0:00.941',-0.323,0.637,0.960,-0.158,-0.641,0.798,-1.200,-0.683,0.278,0.536,-0.035,0.437,0.447,0.709,0.700
'0:00.942',-0.336,0.577,0.913,-0.120,-0.625,0.746,-1.147,-0.625,0.320,0.540,-0.096,0.382,0.415,0.656,0.697
'0:00.943',-0.351,0.496,0.848,-0.072,-0.600,0.672,-1.090,-0.570,0.362,0.543,-0.168,0.312,0.377,0.586,0.692
'0:00.944',-0.365,0.423,0.788,-0.029,-0.577,0.606,-1.046,-0.518,0.405,0.545,-0.206,0.262,0.336,0.522,0.681
'0:00.945',-0.377,0.351,0.729,0.013,-0.552,0.540,-1.002,-0.465,0.451,0.546,-0.233,0.224,0.301,0.463,0.672
'0:00.946',-0.378,0.292,0.669,0.043,-0.523,0.481,-0.969,-0.419,0.494,0.538,-0.254,0.193,0.275,0.412,0.667
'0:00.947',-0.370,0.226,0.596,0.072,-0.483,0.411,-0.949,-0.375,0.536,0.518,-0.268,0.169,0.251,0.351,0.671
'0:00.948',-0.366,0.165,0.531,0.101,-0.449,0.348,-0.936,-0.334,0.570,0.501,-0.278,0.147,0.226,0.287,0.674
'0:00.949',-0.361,0.133,0.494,0.114,-0.428,0.314,-0.942,-0.301,0.594,0.493,-0.274,0.144,0.207,0.249,0.674
'0:00.950',-0.351,0.114,0.466,0.119,-0.408,0.289,-0.947,-0.272,0.622,0.480,-0.267,0.146,0.192,0.221,0.669
'0:00.951',-0.343,0.096,0.439,0.123,-0.391,0.268,-0.941,-0.234,0.664,0.462,-0.249,0.154,0.173,0.197,0.658
'0:00.952',-0.328,0.092,0.420,0.117,-0.374,0.257,-0.946,-0.199,0.706,0.445,-0.230,0.166,0.155,0.193,0.641
'0:00.953',-0.316,0.091,0.407,0.113,-0.362,0.249,-0.945,-0.174,0.738,0.433,-0.214,0.174,0.143,0.185,0.625
'0:00.954',-0.299,0.090,0.391,0.104,-0.345,0.241,-0.936,-0.141,0.776,0.416,-0.198,0.182,0.129,0.174,0.602
'0:00.955',-0.285,0.092,0.379,0.097,-0.333,0.235,-0.933,-0.106,0.815,0.399,-0.181,0.190,0.108,0.160,0.581
'0:00.956',-0.272,0.093,0.365,0.089,-0.319,0.230,-0.933,-0.068,0.854,0.380,-0.157,0.208,0.088,0.147,0.558
'0:00.957',-0.262,0.102,0.363,0.080,-0.312,0.233,-0.921,-0.032,0.891,0.370,-0.133,0.224,0.070,0.148,0.536
'0:00.958',-0.252,0.114,0.366,0.069,-0.309,0.240,-0.893,0.003,0.939,0.362,-0.111,0.239,0.057,0.161,0.504
'0:00.959',-0.241,0.127,0.368,0.058,-0.305,0.247,-0.860,0.042,0.991,0.348,-0.092,0.251,0.043,0.177,0.474
'0:00.960',-0.240,0.137,0.377,0.052,-0.308,0.257,-0.831,0.079,1.034,0.345,-0.077,0.258,0.029,0.189,0.453
'0:00.961',-0.230,0.146,0.377,0.042,-0.303,0.262,-0.807,0.115,1.070,0.341,-0.067,0.265,0.019,0.197,0.431
'0:00.962',-0.222,0.151,0.374,0.035,-0.298,0.263,-0.788,0.145,1.096,0.334,-0.063,0.265,0.011,0.196,0.420
'0:00.963',-0.220,0.154,0.374,0.033,-0.297,0.265,-0.768,0.175,1.123,0.331,-0.057,0.268,0.003,0.196,0.409
'0:00.964',-0.220,0.152,0.372,0.034,-0.296,0.263,-0.751,0.200,1.144,0.332,-0.051,0.271,-0.005,0.197,0.402
'0:00.965',-0.217,0.149,0.367,0.034,-0.292,0.259,-0.736,0.217,1.161,0.330,-0.046,0.273,-0.011,0.200,0.394
'0:00.966',-0.208,0.156,0.364,0.026,-0.286,0.261,-0.715,0.236,1.185,0.326,-0.043,0.274,-0.014,0.210,0.383
'0:00.967',-0.198,0.164,0.362,0.017,-0.280,0.264,-0.701,0.253,1.206,0.321,-0.041,0.276,-0.017,0.218,0.372
'0:00.968',-0.195,0.169,0.364,0.013,-0.280,0.267,-0.701,0.267,1.214,0.323,-0.042,0.275,-0.022,0.215,0.368
'0:00.969',-0.192,0.175,0.366,0.009,-0.280,0.271,-0.706,0.281,1.219,0.325,-0.036,0.276,-0.029,0.210,0.364
'0:00.970',-0.185,0.179,0.364,0.003,-0.275,0.272,-0.703,0.296,1.226,0.324,-0.033,0.281,-0.034,0.209,0.357
'0:00.971',-0.188,0.170,0.358,0.009,-0.273,0.264,-0.695,0.309,1.234,0.324,-0.031,0.281,-0.040,0.203,0.355
'0:00.972',-0.188,0.165,0.352,0.011,-0.271,0.259,-0.690,0.319,1.242,0.324,-0.028,0.284,-0.043,0.199,0.351
'0:00.973',-0.184,0.161,0.345,0.011,-0.265,0.254,-0.689,0.325,1.246,0.322,-0.026,0.287,-0.044,0.197,0.349
'0:00.974',-0.176,0.163,0.340,0.006,-0.258,0.252,-0.691,0.328,1.250,0.317,-0.029,0.286,-0.046,0.195,0.345
'0:00.975',-0.176,0.164,0.340,0.006,-0.259,0.252,-0.693,0.332,1.250,0.317,-0.032,0.281,-0.049,0.190,0.346
'0:00.976',-0.182,0.155,0.338,0.013,-0.260,0.246,-0.700,0.337,1.244,0.318,-0.030,0.283,-0.051,0.180,0.347
'0:00.977',-0.186,0.148,0.335,0.019,-0.261,0.241,-0.700,0.341,1.243,0.322,-0.029,0.284,-0.054,0.172,0.349
'0:00.978',-0.190,0.141,0.333,0.024,-0.262,0.237,-0.691,0.343,1.246,0.320,-0.029,0.283,-0.054,0.171,0.348
'0:00.979',-0.190,0.135,0.326,0.028,-0.258,0.231,-0.680,0.346,1.257,0.312,-0.030,0.281,-0.053,0.173,0.344
'0:00.980',-0.194,0.128,0.322,0.033,-0.258,0.225,-0.674,0.349,1.266,0.310,-0.033,0.280,-0.053,0.172,0.343
'0:00.981',-0.190,0.132,0.322,0.029,-0.256,0.228,-0.675,0.350,1.270,0.307,-0.033,0.279,-0.053,0.177,0.342
'0:00.982',-0.186,0.136,0.323,0.025,-0.255,0.230,-0.674,0.352,1.273,0.306,-0.035,0.278,-0.053,0.176,0.343
'0:00.983',-0.189,0.137,0.327,0.026,-0.258,0.232,-0.675,0.354,1.276,0.306,-0.037,0.276,-0.053,0.177,0.344
'0:00.984',-0.190,0.135,0.325,0.027,-0.258,0.231,-0.677,0.356,1.280,0.306,-0.036,0.275,-0.055,0.180,0.346
'0:00.985',-0.185,0.133,0.320,0.026,-0.253,0.227,-0.673,0.358,1.283,0.304,-0.035,0.277,-0.057,0.180,0.342
'0:00.986',-0.179,0.137,0.317,0.021,-0.248,0.227,-0.663,0.360,1.294,0.301,-0.036,0.277,-0.055,0.189,0.340
'0:00.987',-0.172,0.141,0.314,0.016,-0.243,0.228,-0.657,0.363,1.304,0.297,-0.036,0.278,-0.053,0.196,0.337
'0:00.988',-0.172,0.145,0.317,0.013,-0.244,0.232,-0.668,0.368,1.304,0.297,-0.036,0.276,-0.056,0.193,0.337
'0:00.989',-0.173,0.148,0.323,0.013,-0.248,0.235,-0.680,0.369,1.300,0.301,-0.036,0.276,-0.059,0.186,0.339
'0:00.990',-0.170,0.152,0.323,0.009,-0.246,0.238,-0.685,0.370,1.294,0.301,-0.035,0.276,-0.060,0.186,0.338
'0:00.991',-0.173,0.146,0.321,0.013,-0.247,0.234,-0.683,0.374,1.294,0.303,-0.033,0.277,-0.061,0.183,0.337
'0:00.992',-0.176,0.143,0.321,0.017,-0.248,0.232,-0.678,0.376,1.298,0.302,-0.029,0.279,-0.062,0.181,0.334
'0:00.993',-0.176,0.141,0.318,0.017,-0.247,0.230,-0.679,0.379,1.298,0.300,-0.025,0.281,-0.065,0.183,0.331
'0:00.994',-0.172,0.143,0.317,0.015,-0.245,0.231,-0.680,0.379,1.299,0.297,-0.024,0.281,-0.066,0.182,0.326
'0:00.995',-0.172,0.146,0.318,0.013,-0.245,0.233,-0.683,0.381,1.300,0.296,-0.026,0.280,-0.067,0.181,0.327
'0:00.996',-0.177,0.141,0.318,0.018,-0.247,0.229,-0.689,0.383,1.294,0.298,-0.023,0.281,-0.071,0.170,0.328
'0:00.997',-0.181,0.138,0.320,0.022,-0.251,0.229,-0.689,0.384,1.290,0.301,-0.021,0.281,-0.075,0.165,0.329
'0:00.998',-0.181,0.137,0.319,0.022,-0.251,0.228,-0.680,0.386,1.296,0.300,-0.018,0.285,-0.075,0.169,0.326
'0:00.999',-0.180,0.134,0.315,0.024,-0.248,0.225,-0.667,0.386,1.306,0.294,-0.018,0.284,-0.075,0.172,0.323
'0:01.000',-0.185,0.131,0.316,0.028,-0.251,0.223,-0.660,0.389,1.314,0.295,-0.017,0.285,-0.074,0.174,0.324
'0:01.001',-0.182,0.137,0.319,0.022,-0.251,0.228,-0.663,0.390,1.317,0.294,-0.015,0.286,-0.073,0.180,0.322
'0:01.002',-0.177,0.141,0.318,0.018,-0.248,0.230,-0.668,0.390,1.317,0.292,-0.020,0.281,-0.075,0.186,0.322
'0:01.003',-0.178,0.142,0.321,0.018,-0.249,0.232,-0.667,0.389,1.319,0.291,-0.021,0.280,-0.076,0.183,0.323
'0:01.004',-0.182,0.139,0.322,0.022,-0.253,0.231,-0.666,0.391,1.322,0.292,-0.019,0.280,-0.077,0.180,0.326
'0:01.005',-0.181,0.137,0.319,0.022,-0.251,0.229,-0.663,0.394,1.327,0.291,-0.015,0.283,-0.078,0.187,0.324
'0:01.006',-0.176,0.141,0.318,0.018,-0.247,0.230,-0.655,0.394,1.335,0.287,-0.016,0.282,-0.075,0.195,0.320
'0:01.007',-0.172,0.144,0.317,0.013,-0.244,0.231,-0.652,0.394,1.345,0.284,-0.018,0.282,-0.073,0.200,0.316
'0:01.008',-0.173,0.148,0.323,0.013,-0.248,0.236,-0.663,0.395,1.344,0.284,-0.021,0.281,-0.075,0.198,0.318
'0:01.009',-0.172,0.154,0.327,0.009,-0.250,0.240,-0.673,0.398,1.337,0.287,-0.019,0.282,-0.077,0.195,0.319
'0:01.010',-0.167,0.161,0.328,0.004,-0.247,0.244,-0.675,0.400,1.335,0.289,-0.017,0.285,-0.079,0.192,0.317
'0:01.011',-0.172,0.153,0.326,0.009,-0.249,0.239,-0.674,0.404,1.335,0.292,-0.013,0.287,-0.080,0.185,0.319
'0:01.012',-0.172,0.151,0.324,0.011,-0.248,0.237,-0.670,0.406,1.338,0.292,-0.009,0.292,-0.080,0.188,0.318
'0:01.013',-0.169,0.150,0.319,0.009,-0.244,0.234,-0.670,0.407,1.341,0.292,-0.007,0.294,-0.080,0.186,0.313
'0:01.014',-0.164,0.152,0.317,0.005,-0.240,0.235,-0.674,0.407,1.339,0.289,-0.009,0.293,-0.081,0.185,0.309
'0:01.015',-0.165,0.157,0.323,0.004,-0.244,0.240,-0.677,0.407,1.336,0.289,-0.009,0.293,-0.083,0.186,0.309
'0:01.016',-0.170,0.153,0.323,0.008,-0.246,0.238,-0.681,0.410,1.331,0.292,-0.005,0.296,-0.087,0.179,0.309
'0:01.017',-0.174,0.151,0.326,0.011,-0.250,0.238,-0.682,0.411,1.325,0.296,-0.005,0.297,-0.089,0.176,0.313
'0:01.018',-0.173,0.147,0.322,0.013,-0.247,0.234,-0.674,0.412,1.331,0.297,-0.003,0.302,-0.088,0.179,0.310
'0:01.019',-0.172,0.143,0.315,0.015,-0.243,0.230,-0.662,0.415,1.341,0.291,-0.003,0.302,-0.086,0.182,0.306
'0:01.020',-0.172,0.141,0.314,0.016,-0.243,0.227,-0.660,0.417,1.348,0.289,-0.003,0.300,-0.086,0.186,0.306
'0:01.021',-0.169,0.146,0.316,0.011,-0.242,0.231,-0.662,0.416,1.353,0.288,-0.001,0.300,-0.085,0.191,0.303
'0:01.022',-0.170,0.149,0.319,0.010,-0.244,0.234,-0.666,0.417,1.354,0.289,-0.003,0.298,-0.085,0.191,0.303
'0:01.023',-0.171,0.150,0.321,0.010,-0.246,0.236,-0.666,0.416,1.355,0.288,-0.004,0.295,-0.086,0.190,0.304
'0:01.024',-0.174,0.148,0.323,0.013,-0.248,0.235,-0.663,0.418,1.359,0.290,-0.004,0.297,-0.087,0.190,0.307
'0:01.025',-0.172,0.148,0.321,0.011,-0.246,0.234,-0.659,0.420,1.365,0.288,-0.001,0.299,-0.086,0.195,0.304
'0:01.026',-0.168,0.154,0.322,0.006,-0.245,0.238,-0.649,0.421,1.376,0.286,-0.001,0.300,-0.084,0.205,0.301
'0:01.027',-0.165,0.160,0.325,0.002,-0.244,0.242,-0.644,0.423,1.387,0.282,-0.001,0.299,-0.083,0.210,0.297
'0:01.028',-0.162,0.165,0.327,-0.002,-0.244,0.246,-0.654,0.422,1.385,0.281,-0.001,0.296,-0.086,0.208,0.298
'0:01.029',-0.162,0.170,0.331,-0.004,-0.246,0.251,-0.668,0.424,1.378,0.288,0.000,0.296,-0.089,0.205,0.300
'0:01.030',-0.161,0.173,0.334,-0.007,-0.247,0.254,-0.673,0.426,1.373,0.289,0.004,0.298,-0.091,0.203,0.297
'0:01.031',-0.162,0.169,0.331,-0.004,-0.246,0.250,-0.672,0.428,1.374,0.290,0.007,0.302,-0.092,0.199,0.298
'0:01.032',-0.160,0.168,0.328,-0.004,-0.244,0.248,-0.667,0.431,1.376,0.291,0.011,0.307,-0.091,0.198,0.296
'0:01.033',-0.158,0.167,0.325,-0.004,-0.241,0.246,-0.663,0.435,1.378,0.291,0.017,0.311,-0.092,0.198,0.292
'0:01.034',-0.153,0.172,0.326,-0.009,-0.240,0.249,-0.662,0.437,1.381,0.288,0.015,0.312,-0.093,0.202,0.288
'0:01.035',-0.154,0.174,0.330,-0.011,-0.242,0.253,-0.664,0.436,1.379,0.287,0.013,0.310,-0.096,0.199,0.289
'0:01.036',-0.157,0.172,0.329,-0.008,-0.243,0.251,-0.672,0.441,1.373,0.291,0.017,0.314,-0.099,0.195,0.288
'0:01.037',-0.160,0.172,0.332,-0.006,-0.246,0.253,-0.674,0.445,1.371,0.295,0.019,0.315,-0.102,0.190,0.289
'0:01.038',-0.158,0.169,0.327,-0.006,-0.242,0.248,-0.663,0.448,1.378,0.294,0.024,0.319,-0.102,0.195,0.285
'0:01.039',-0.156,0.166,0.322,-0.005,-0.239,0.244,-0.650,0.450,1.389,0.290,0.025,0.320,-0.100,0.204,0.281
'0:01.040',-0.163,0.159,0.321,0.002,-0.242,0.240,-0.645,0.452,1.397,0.288,0.024,0.319,-0.100,0.201,0.281
'0:01.041',-0.160,0.163,0.324,-0.002,-0.242,0.243,-0.645,0.452,1.399,0.287,0.024,0.317,-0.101,0.202,0.278
'0:01.042',-0.158,0.170,0.327,-0.006,-0.242,0.248,-0.643,0.453,1.403,0.285,0.023,0.315,-0.102,0.205,0.277
'0:01.043',-0.159,0.174,0.333,-0.008,-0.245,0.253,-0.642,0.455,1.407,0.285,0.021,0.314,-0.104,0.208,0.277
'0:01.044',-0.164,0.171,0.335,-0.004,-0.249,0.253,-0.642,0.456,1.409,0.288,0.022,0.316,-0.104,0.207,0.278
'0:01.045',-0.161,0.168,0.329,-0.004,-0.244,0.248,-0.638,0.459,1.418,0.287,0.026,0.319,-0.104,0.209,0.274
'0:01.046',-0.153,0.173,0.326,-0.010,-0.239,0.249,-0.632,0.460,1.431,0.283,0.027,0.317,-0.104,0.218,0.270
'0:01.047',-0.148,0.176,0.325,-0.014,-0.236,0.251,-0.633,0.461,1.438,0.277,0.026,0.317,-0.102,0.224,0.267
'0:01.048',-0.149,0.181,0.331,-0.017,-0.240,0.257,-0.643,0.463,1.438,0.277,0.025,0.313,-0.105,0.223,0.268
'0:01.049',-0.150,0.186,0.336,-0.018,-0.243,0.262,-0.655,0.465,1.433,0.282,0.029,0.313,-0.111,0.222,0.269
'0:01.050',-0.148,0.191,0.339,-0.021,-0.243,0.265,-0.658,0.467,1.432,0.283,0.032,0.316,-0.112,0.220,0.267
'0:01.051',-0.149,0.190,0.339,-0.021,-0.244,0.264,-0.654,0.470,1.433,0.285,0.035,0.318,-0.114,0.216,0.267
'0:01.052',-0.147,0.188,0.335,-0.021,-0.241,0.262,-0.654,0.472,1.436,0.284,0.038,0.323,-0.115,0.218,0.263
'0:01.053',-0.147,0.185,0.333,-0.019,-0.240,0.260,-0.651,0.476,1.440,0.285,0.042,0.327,-0.115,0.216,0.260
'0:01.054',-0.145,0.191,0.336,-0.023,-0.240,0.263,-0.651,0.479,1.444,0.284,0.043,0.326,-0.117,0.215,0.254
'0:01.055',-0.143,0.194,0.337,-0.026,-0.240,0.266,-0.656,0.479,1.444,0.284,0.041,0.324,-0.121,0.216,0.255
'0:01.056',-0.148,0.194,0.342,-0.023,-0.244,0.268,-0.661,0.483,1.442,0.287,0.043,0.326,-0.125,0.213,0.256
'0:01.057',-0.155,0.192,0.347,-0.018,-0.252,0.270,-0.660,0.488,1.438,0.291,0.047,0.328,-0.128,0.208,0.257
'0:01.058',-0.150,0.188,0.338,-0.019,-0.244,0.263,-0.652,0.491,1.444,0.289,0.050,0.331,-0.130,0.208,0.252
'0:01.059',-0.148,0.186,0.335,-0.019,-0.241,0.261,-0.638,0.493,1.456,0.285,0.053,0.333,-0.128,0.212,0.247
'0:01.060',-0.151,0.183,0.335,-0.017,-0.243,0.260,-0.633,0.497,1.464,0.284,0.052,0.332,-0.129,0.216,0.246
'0:01.061',-0.143,0.192,0.336,-0.025,-0.239,0.264,-0.636,0.500,1.470,0.281,0.050,0.332,-0.130,0.221,0.242
'0:01.062',-0.143,0.197,0.340,-0.027,-0.241,0.268,-0.632,0.501,1.475,0.282,0.051,0.332,-0.130,0.224,0.243
'0:01.063',-0.144,0.200,0.344,-0.028,-0.243,0.272,-0.630,0.503,1.479,0.282,0.050,0.331,-0.132,0.226,0.244
'0:01.064',-0.148,0.196,0.344,-0.024,-0.246,0.271,-0.630,0.504,1.480,0.284,0.050,0.332,-0.131,0.226,0.246
'0:01.065',-0.149,0.195,0.343,-0.023,-0.246,0.269,-0.626,0.507,1.486,0.284,0.055,0.336,-0.132,0.232,0.243
'0:01.066',-0.142,0.202,0.344,-0.030,-0.243,0.273,-0.620,0.511,1.499,0.281,0.056,0.336,-0.132,0.241,0.239
'0:01.067',-0.137,0.206,0.343,-0.035,-0.240,0.275,-0.619,0.514,1.510,0.279,0.059,0.338,-0.132,0.248,0.234
'0:01.068',-0.133,0.214,0.346,-0.041,-0.239,0.281,-0.627,0.518,1.510,0.278,0.060,0.337,-0.136,0.250,0.234
'0:01.069',-0.134,0.219,0.352,-0.043,-0.243,0.286,-0.636,0.521,1.506,0.282,0.063,0.339,-0.139,0.247,0.236
'0:01.070',-0.135,0.223,0.357,-0.044,-0.246,0.290,-0.637,0.525,1.506,0.286,0.069,0.343,-0.141,0.245,0.234
'0:01.071',-0.137,0.220,0.356,-0.042,-0.247,0.288,-0.633,0.530,1.508,0.287,0.071,0.344,-0.143,0.243,0.232
'0:01.072',-0.137,0.218,0.355,-0.042,-0.245,0.287,-0.630,0.534,1.512,0.285,0.076,0.345,-0.146,0.242,0.228
'0:01.073',-0.133,0.222,0.353,-0.044,-0.243,0.287,-0.629,0.538,1.517,0.284,0.081,0.352,-0.146,0.245,0.225
'0:01.074',-0.127,0.228,0.354,-0.051,-0.240,0.291,-0.627,0.541,1.521,0.281,0.084,0.355,-0.147,0.249,0.220
'0:01.075',-0.124,0.232,0.357,-0.054,-0.241,0.295,-0.629,0.544,1.522,0.282,0.087,0.354,-0.150,0.250,0.217
'0:01.076',-0.127,0.230,0.357,-0.052,-0.242,0.294,-0.638,0.549,1.520,0.287,0.091,0.357,-0.155,0.243,0.216
'0:01.077',-0.133,0.228,0.360,-0.048,-0.246,0.294,-0.638,0.553,1.519,0.290,0.093,0.359,-0.159,0.238,0.217
'0:01.078',-0.132,0.227,0.359,-0.048,-0.245,0.293,-0.627,0.557,1.526,0.289,0.100,0.365,-0.158,0.244,0.211
'0:01.079',-0.131,0.227,0.357,-0.048,-0.244,0.292,-0.615,0.559,1.539,0.284,0.102,0.367,-0.157,0.248,0.206
'0:01.080',-0.134,0.224,0.357,-0.045,-0.245,0.290,-0.607,0.564,1.550,0.283,0.102,0.366,-0.159,0.251,0.205
'0:01.081',-0.129,0.232,0.360,-0.051,-0.244,0.296,-0.607,0.565,1.556,0.281,0.102,0.367,-0.159,0.256,0.203
'0:01.082',-0.131,0.235,0.366,-0.052,-0.248,0.301,-0.606,0.566,1.560,0.281,0.103,0.366,-0.159,0.259,0.203
'0:01.083',-0.132,0.238,0.371,-0.053,-0.252,0.305,-0.606,0.570,1.567,0.281,0.105,0.366,-0.163,0.261,0.202
'0:01.084',-0.134,0.239,0.373,-0.052,-0.254,0.306,-0.609,0.575,1.571,0.283,0.108,0.369,-0.164,0.265,0.203
'0:01.085',-0.134,0.239,0.373,-0.052,-0.254,0.306,-0.605,0.580,1.581,0.282,0.116,0.373,-0.164,0.270,0.200
'0:01.086',-0.130,0.245,0.376,-0.058,-0.253,0.310,-0.596,0.583,1.593,0.280,0.116,0.373,-0.163,0.279,0.197
'0:01.087',-0.121,0.253,0.374,-0.066,-0.248,0.314,-0.596,0.587,1.603,0.275,0.117,0.374,-0.163,0.287,0.192
'0:01.088',-0.118,0.261,0.379,-0.072,-0.248,0.320,-0.606,0.593,1.605,0.276,0.120,0.373,-0.167,0.285,0.192
'0:01.089',-0.117,0.267,0.383,-0.075,-0.249,0.325,-0.618,0.597,1.603,0.281,0.123,0.376,-0.172,0.282,0.191
'0:01.090',-0.113,0.273,0.385,-0.081,-0.248,0.329,-0.621,0.601,1.603,0.282,0.129,0.381,-0.175,0.282,0.187
'0:01.091',-0.116,0.269,0.385,-0.077,-0.250,0.327,-0.615,0.607,1.607,0.283,0.134,0.383,-0.181,0.282,0.184
'0:01.092',-0.112,0.268,0.380,-0.079,-0.246,0.325,-0.613,0.612,1.612,0.282,0.139,0.387,-0.185,0.282,0.179
'0:01.093',-0.107,0.270,0.377,-0.082,-0.242,0.324,-0.613,0.616,1.616,0.281,0.144,0.393,-0.185,0.283,0.174
'0:01.094',-0.101,0.277,0.378,-0.088,-0.239,0.328,-0.615,0.620,1.620,0.278,0.146,0.396,-0.188,0.289,0.170
'0:01.095',-0.101,0.281,0.382,-0.090,-0.241,0.332,-0.620,0.624,1.623,0.278,0.148,0.398,-0.189,0.291,0.168
'0:01.096',-0.106,0.280,0.386,-0.087,-0.246,0.333,-0.624,0.629,1.619,0.282,0.152,0.401,-0.195,0.284,0.165
'0:01.097',-0.109,0.281,0.389,-0.086,-0.249,0.335,-0.623,0.635,1.619,0.285,0.155,0.403,-0.200,0.282,0.166
'0:01.098',-0.105,0.280,0.385,-0.087,-0.245,0.333,-0.612,0.641,1.632,0.285,0.164,0.410,-0.202,0.286,0.159
'0:01.099',-0.104,0.281,0.385,-0.088,-0.245,0.333,-0.597,0.645,1.647,0.281,0.168,0.412,-0.202,0.291,0.153
'0:01.100',-0.106,0.280,0.387,-0.087,-0.246,0.334,-0.592,0.651,1.657,0.280,0.172,0.414,-0.202,0.298,0.151
'0:01.101',-0.099,0.289,0.387,-0.096,-0.242,0.339,-0.594,0.654,1.665,0.277,0.175,0.415,-0.205,0.307,0.146
'0:01.102',-0.098,0.294,0.392,-0.099,-0.244,0.343,-0.593,0.657,1.671,0.275,0.175,0.415,-0.208,0.310,0.145
'0:01.103',-0.097,0.297,0.395,-0.101,-0.246,0.346,-0.592,0.660,1.677,0.274,0.178,0.415,-0.210,0.310,0.145
'0:01.104',-0.099,0.300,0.399,-0.102,-0.248,0.350,-0.597,0.666,1.684,0.276,0.182,0.418,-0.212,0.314,0.144
'0:01.105',-0.095,0.303,0.398,-0.105,-0.246,0.351,-0.595,0.672,1.694,0.275,0.189,0.424,-0.213,0.321,0.140
'0:01.106',-0.089,0.310,0.399,-0.111,-0.244,0.355,-0.584,0.678,1.711,0.270,0.194,0.424,-0.214,0.334,0.134
'0:01.107',-0.085,0.317,0.402,-0.116,-0.243,0.359,-0.582,0.682,1.725,0.265,0.198,0.426,-0.215,0.342,0.128
'0:01.108',-0.086,0.323,0.408,-0.119,-0.247,0.366,-0.589,0.686,1.726,0.265,0.201,0.426,-0.220,0.342,0.127
'0:01.109',-0.086,0.329,0.415,-0.122,-0.251,0.372,-0.599,0.692,1.724,0.269,0.206,0.428,-0.224,0.338,0.127
'0:01.110',-0.080,0.338,0.418,-0.130,-0.248,0.378,-0.602,0.696,1.728,0.270,0.212,0.434,-0.227,0.338,0.122
'0:01.111',-0.081,0.338,0.418,-0.129,-0.250,0.379,-0.597,0.703,1.733,0.272,0.220,0.439,-0.230,0.342,0.121
'0:01.112',-0.079,0.340,0.418,-0.131,-0.248,0.380,-0.596,0.710,1.740,0.273,0.228,0.446,-0.233,0.345,0.115
'0:01.113',-0.076,0.342,0.417,-0.134,-0.246,0.380,-0.595,0.715,1.746,0.270,0.234,0.452,-0.237,0.347,0.108
'0:01.114',-0.073,0.348,0.421,-0.138,-0.247,0.386,-0.592,0.719,1.752,0.268,0.240,0.455,-0.239,0.348,0.102
'0:01.115',-0.072,0.355,0.427,-0.141,-0.249,0.391,-0.597,0.722,1.755,0.267,0.243,0.457,-0.242,0.350,0.102
'0:01.116',-0.075,0.354,0.429,-0.140,-0.253,0.393,-0.603,0.727,1.752,0.269,0.249,0.460,-0.249,0.347,0.102
'0:01.117',-0.079,0.355,0.434,-0.138,-0.257,0.395,-0.601,0.732,1.754,0.273,0.258,0.464,-0.254,0.344,0.101
'0:01.118',-0.073,0.358,0.431,-0.143,-0.252,0.395,-0.590,0.736,1.764,0.271,0.264,0.471,-0.255,0.351,0.097
'0:01.119',-0.068,0.362,0.430,-0.147,-0.249,0.396,-0.578,0.742,1.781,0.268,0.270,0.477,-0.255,0.359,0.091
'0:01.120',-0.070,0.362,0.432,-0.147,-0.251,0.398,-0.575,0.748,1.794,0.266,0.274,0.478,-0.257,0.365,0.088
'0:01.121',-0.065,0.371,0.435,-0.153,-0.250,0.404,-0.580,0.749,1.802,0.264,0.277,0.480,-0.258,0.373,0.085
'0:01.122',-0.063,0.378,0.441,-0.158,-0.252,0.409,-0.578,0.752,1.808,0.265,0.281,0.482,-0.261,0.379,0.083
'0:01.123',-0.062,0.386,0.447,-0.162,-0.255,0.416,-0.576,0.757,1.814,0.262,0.285,0.482,-0.264,0.385,0.082
'0:01.124',-0.062,0.387,0.450,-0.163,-0.256,0.418,-0.574,0.761,1.821,0.264,0.290,0.488,-0.266,0.387,0.081
'0:01.125',-0.057,0.391,0.447,-0.168,-0.252,0.419,-0.570,0.766,1.832,0.262,0.297,0.495,-0.268,0.396,0.075
'0:01.126',-0.051,0.400,0.450,-0.174,-0.251,0.425,-0.564,0.768,1.845,0.257,0.303,0.496,-0.269,0.406,0.070
'0:01.127',-0.043,0.407,0.450,-0.182,-0.246,0.428,-0.561,0.770,1.857,0.254,0.308,0.500,-0.269,0.414,0.064
